'sample #',MLII,V5
629209,958,1007
629210,956,1008
629211,960,1009
629212,961,1010
629213,962,1007
629214,962,1005
629215,959,1006
629216,958,1006
629217,959,1003
629218,959,1006
629219,958,1005
629220,959,1004
629221,956,1003
629222,953,1003
629223,957,1005
629224,959,1006
629225,956,1005
629226,955,1006
629227,953,1004
629228,955,1006
629229,958,1004
629230,957,1007
629231,961,1005
629232,960,1005
629233,958,1003
629234,958,999
629235,958,1002
629236,959,1002
629237,960,1004
629238,958,1003
629239,956,1002
629240,953,999
629241,960,997
629242,963,992
629243,964,992
629244,962,993
629245,959,991
629246,957,988
629247,955,987
629248,957,986
629249,953,984
629250,952,984
629251,952,981
629252,950,981
629253,948,982
629254,950,981
629255,950,976
629256,952,973
629257,951,969
629258,947,972
629259,945,975
629260,947,977
629261,948,977
629262,948,973
629263,947,972
629264,945,973
629265,949,976
629266,951,976
629267,952,980
629268,950,980
629269,951,980
629270,952,987
629271,958,988
629272,960,989
629273,958,988
629274,958,987
629275,956,986
629276,952,986
629277,950,992
629278,950,995
629279,952,996
629280,955,996
629281,958,997
629282,958,997
629283,962,998
629284,962,1001
629285,960,1002
629286,960,1002
629287,958,1001
629288,957,1002
629289,962,1004
629290,964,1003
629291,965,1004
629292,963,1002
629293,962,997
629294,958,998
629295,957,1000
629296,961,1005
629297,967,1004
629298,967,1006
629299,966,1001
629300,964,1001
629301,962,1005
629302,964,1009
629303,964,1008
629304,963,1006
629305,962,1005
629306,959,1002
629307,962,1002
629308,964,1005
629309,966,1003
629310,963,1001
629311,963,1001
629312,961,1003
629313,960,1004
629314,960,1005
629315,962,1005
629316,962,1000
629317,963,997
629318,962,999
629319,961,1003
629320,963,1005
629321,963,1006
629322,967,1004
629323,967,1001
629324,963,1002
629325,963,1007
629326,966,1008
629327,967,1006
629328,965,1005
629329,963,1003
629330,959,1002
629331,962,1002
629332,963,1003
629333,966,1001
629334,962,1000
629335,961,1001
629336,959,1002
629337,959,1006
629338,961,1005
629339,962,1004
629340,963,1000
629341,960,1000
629342,960,998
629343,960,999
629344,961,998
629345,958,999
629346,961,1000
629347,961,999
629348,957,1000
629349,962,998
629350,963,1000
629351,965,1001
629352,965,999
629353,964,997
629354,960,997
629355,961,999
629356,960,1000
629357,963,999
629358,961,999
629359,959,997
629360,957,999
629361,959,1001
629362,960,1001
629363,962,999
629364,962,1001
629365,960,999
629366,958,1001
629367,957,1000
629368,958,1002
629369,960,998
629370,958,998
629371,957,995
629372,958,996
629373,958,1000
629374,961,1002
629375,959,1002
629376,960,1000
629377,960,999
629378,960,999
629379,958,999
629380,960,1002
629381,961,1001
629382,961,1001
629383,961,998
629384,959,1000
629385,958,1002
629386,957,1000
629387,959,1000
629388,959,1001
629389,957,996
629390,955,995
629391,957,999
629392,959,1001
629393,960,1003
629394,961,1001
629395,959,999
629396,960,996
629397,958,998
629398,959,998
629399,960,1001
629400,961,1002
629401,958,1000
629402,954,999
629403,959,1001
629404,961,1003
629405,964,1002
629406,963,1001
629407,962,999
629408,957,1001
629409,955,1000
629410,955,1002
629411,959,1001
629412,960,1001
629413,960,1001
629414,959,999
629415,962,1003
629416,962,1002
629417,963,1002
629418,965,998
629419,963,995
629420,962,996
629421,964,1000
629422,968,1003
629423,971,1002
629424,974,1003
629425,978,1002
629426,977,1004
629427,978,1004
629428,982,1008
629429,984,1010
629430,987,1010
629431,984,1006
629432,984,1004
629433,983,1004
629434,983,1008
629435,982,1009
629436,982,1010
629437,980,1009
629438,981,1010
629439,984,1010
629440,984,1013
629441,983,1012
629442,979,1011
629443,979,1006
629444,978,1005
629445,984,1006
629446,984,1007
629447,982,1003
629448,976,1005
629449,967,1003
629450,966,1003
629451,967,1004
629452,967,1004
629453,966,1002
629454,964,1001
629455,960,999
629456,959,997
629457,958,1001
629458,958,1002
629459,963,1001
629460,960,999
629461,958,997
629462,956,996
629463,954,998
629464,957,1001
629465,958,999
629466,957,996
629467,957,996
629468,954,995
629469,955,995
629470,958,999
629471,958,1000
629472,957,999
629473,957,996
629474,953,993
629475,954,990
629476,954,991
629477,952,985
629478,946,979
629479,938,972
629480,932,971
629481,926,978
629482,923,1003
629483,918,1030
629484,928,1055
629485,949,1067
629486,975,1078
629487,1005,1091
629488,1038,1104
629489,1074,1119
629490,1114,1130
629491,1157,1142
629492,1192,1161
629493,1213,1182
629494,1233,1194
629495,1251,1175
629496,1264,1111
629497,1256,1028
629498,1209,975
629499,1125,962
629500,1035,974
629501,968,984
629502,934,984
629503,929,984
629504,934,988
629505,944,992
629506,951,992
629507,953,993
629508,951,990
629509,949,991
629510,947,989
629511,950,990
629512,954,992
629513,952,991
629514,949,991
629515,945,988
629516,942,988
629517,943,991
629518,943,991
629519,947,990
629520,944,989
629521,945,987
629522,940,988
629523,942,988
629524,941,989
629525,942,987
629526,942,988
629527,940,988
629528,937,986
629529,940,990
629530,941,990
629531,942,992
629532,941,988
629533,941,988
629534,941,988
629535,941,988
629536,944,989
629537,945,987
629538,943,987
629539,939,986
629540,938,987
629541,938,986
629542,940,987
629543,943,987
629544,940,988
629545,939,984
629546,937,984
629547,938,989
629548,937,987
629549,941,987
629550,939,984
629551,940,982
629552,941,982
629553,939,982
629554,939,986
629555,941,985
629556,940,985
629557,938,982
629558,935,983
629559,938,983
629560,941,983
629561,941,982
629562,942,980
629563,942,977
629564,936,976
629565,937,976
629566,942,980
629567,942,979
629568,941,975
629569,939,972
629570,938,969
629571,935,974
629572,938,976
629573,940,972
629574,937,968
629575,937,968
629576,938,965
629577,936,966
629578,935,968
629579,937,966
629580,936,963
629581,934,960
629582,928,958
629583,929,958
629584,929,963
629585,931,961
629586,933,961
629587,930,959
629588,930,961
629589,934,966
629590,934,967
629591,936,966
629592,939,966
629593,938,965
629594,934,966
629595,937,971
629596,940,979
629597,943,982
629598,946,983
629599,945,982
629600,945,984
629601,947,989
629602,953,992
629603,958,996
629604,959,997
629605,959,995
629606,958,999
629607,959,999
629608,963,1002
629609,968,1001
629610,968,1002
629611,965,999
629612,962,999
629613,966,1000
629614,965,1002
629615,969,1002
629616,969,1000
629617,967,1000
629618,964,999
629619,967,1001
629620,967,1002
629621,970,1003
629622,967,999
629623,968,997
629624,964,997
629625,965,999
629626,967,1000
629627,965,1001
629628,966,1000
629629,964,996
629630,963,996
629631,963,995
629632,965,998
629633,967,996
629634,966,996
629635,964,996
629636,960,994
629637,962,998
629638,962,999
629639,964,998
629640,963,997
629641,960,993
629642,960,993
629643,960,996
629644,965,997
629645,963,995
629646,962,994
629647,961,992
629648,958,991
629649,956,994
629650,957,993
629651,959,992
629652,959,991
629653,960,988
629654,956,984
629655,956,985
629656,955,989
629657,953,988
629658,953,987
629659,954,985
629660,951,983
629661,950,984
629662,953,985
629663,953,987
629664,953,983
629665,952,982
629666,950,982
629667,950,984
629668,952,985
629669,954,984
629670,954,982
629671,952,982
629672,950,981
629673,951,984
629674,954,985
629675,955,987
629676,953,984
629677,949,982
629678,945,980
629679,945,983
629680,951,985
629681,953,985
629682,955,984
629683,952,985
629684,949,981
629685,948,984
629686,949,985
629687,956,984
629688,958,982
629689,957,983
629690,956,981
629691,959,984
629692,962,987
629693,963,988
629694,964,986
629695,966,984
629696,962,987
629697,965,989
629698,971,995
629699,972,995
629700,973,993
629701,974,993
629702,972,991
629703,973,992
629704,975,994
629705,974,999
629706,970,999
629707,969,996
629708,967,994
629709,971,998
629710,972,999
629711,971,1000
629712,972,998
629713,975,992
629714,975,990
629715,974,993
629716,967,992
629717,962,992
629718,961,988
629719,957,987
629720,953,987
629721,950,988
629722,952,988
629723,953,989
629724,950,989
629725,949,984
629726,948,985
629727,948,988
629728,948,989
629729,949,986
629730,948,986
629731,948,985
629732,945,985
629733,946,985
629734,946,986
629735,946,987
629736,946,987
629737,944,984
629738,943,984
629739,943,985
629740,944,988
629741,943,988
629742,944,985
629743,946,982
629744,942,980
629745,944,975
629746,942,972
629747,938,965
629748,930,963
629749,921,954
629750,917,959
629751,911,978
629752,905,1010
629753,912,1041
629754,932,1069
629755,964,1093
629756,999,1116
629757,1042,1143
629758,1095,1170
629759,1160,1187
629760,1209,1176
629761,1233,1111
629762,1231,1026
629763,1191,967
629764,1105,957
629765,1011,972
629766,943,978
629767,918,977
629768,919,980
629769,933,984
629770,944,985
629771,947,983
629772,945,982
629773,942,979
629774,938,978
629775,942,979
629776,943,983
629777,945,981
629778,945,980
629779,943,978
629780,941,980
629781,942,981
629782,941,982
629783,942,981
629784,941,980
629785,941,982
629786,940,980
629787,940,981
629788,940,983
629789,944,984
629790,945,982
629791,940,981
629792,939,980
629793,938,980
629794,942,983
629795,942,983
629796,944,985
629797,939,983
629798,937,980
629799,940,982
629800,941,983
629801,945,984
629802,943,982
629803,943,981
629804,942,983
629805,942,985
629806,944,985
629807,947,983
629808,946,981
629809,943,979
629810,941,981
629811,943,983
629812,942,985
629813,944,983
629814,944,983
629815,942,979
629816,941,979
629817,942,980
629818,945,983
629819,945,984
629820,945,982
629821,943,979
629822,942,977
629823,943,979
629824,944,980
629825,946,979
629826,947,980
629827,946,977
629828,945,979
629829,946,979
629830,948,981
629831,949,979
629832,949,977
629833,947,973
629834,943,972
629835,946,974
629836,947,978
629837,949,975
629838,948,974
629839,947,972
629840,945,968
629841,946,968
629842,950,969
629843,950,968
629844,950,968
629845,949,965
629846,946,964
629847,948,965
629848,948,966
629849,950,963
629850,950,964
629851,947,963
629852,946,963
629853,946,965
629854,948,969
629855,950,968
629856,948,967
629857,948,967
629858,947,969
629859,949,972
629860,951,979
629861,953,977
629862,955,980
629863,955,982
629864,953,982
629865,956,985
629866,960,992
629867,961,990
629868,961,993
629869,962,992
629870,963,992
629871,963,997
629872,967,996
629873,971,998
629874,971,997
629875,970,996
629876,969,996
629877,970,998
629878,970,999
629879,973,1000
629880,973,1000
629881,969,999
629882,969,999
629883,967,1000
629884,969,1001
629885,973,1001
629886,971,999
629887,966,998
629888,967,997
629889,968,1001
629890,970,1001
629891,970,1001
629892,970,999
629893,968,998
629894,967,996
629895,966,1001
629896,967,1001
629897,970,1000
629898,970,999
629899,970,998
629900,966,995
629901,966,998
629902,967,1000
629903,971,997
629904,969,998
629905,968,994
629906,966,995
629907,965,994
629908,966,998
629909,967,996
629910,966,997
629911,962,996
629912,960,994
629913,960,994
629914,961,997
629915,965,994
629916,963,996
629917,961,992
629918,959,992
629919,957,993
629920,959,994
629921,960,993
629922,960,991
629923,958,989
629924,956,990
629925,956,993
629926,958,994
629927,960,995
629928,960,992
629929,959,991
629930,956,990
629931,957,990
629932,960,992
629933,962,991
629934,961,990
629935,957,988
629936,954,987
629937,955,989
629938,958,990
629939,959,989
629940,956,988
629941,954,989
629942,953,988
629943,956,991
629944,956,993
629945,957,990
629946,957,991
629947,956,988
629948,956,989
629949,959,989
629950,962,990
629951,964,991
629952,969,990
629953,969,990
629954,969,989
629955,970,989
629956,976,996
629957,973,996
629958,973,997
629959,975,996
629960,977,995
629961,978,998
629962,981,1000
629963,985,999
629964,984,999
629965,984,997
629966,982,997
629967,979,999
629968,980,1003
629969,980,1001
629970,977,1005
629971,976,1003
629972,973,1001
629973,977,1002
629974,979,1004
629975,976,1005
629976,972,1005
629977,973,1004
629978,974,999
629979,982,999
629980,983,996
629981,979,997
629982,972,998
629983,967,996
629984,960,994
629985,958,994
629986,958,995
629987,958,994
629988,957,994
629989,954,993
629990,951,991
629991,951,993
629992,952,994
629993,957,994
629994,955,992
629995,955,990
629996,953,988
629997,950,991
629998,951,995
629999,954,994
630000,953,995
630001,952,992
630002,952,991
630003,952,993
630004,954,994
630005,956,994
630006,957,993
630007,954,990
630008,952,984
630009,949,979
630010,948,977
630011,943,972
630012,935,968
630013,932,963
630014,925,968
630015,917,988
630016,912,1013
630017,916,1038
630018,932,1057
630019,955,1068
630020,980,1080
630021,1007,1101
630022,1040,1121
630023,1087,1140
630024,1140,1159
630025,1182,1174
630026,1206,1185
630027,1225,1175
630028,1239,1129
630029,1238,1057
630030,1204,990
630031,1136,960
630032,1049,967
630033,975,981
630034,933,986
630035,925,989
630036,933,988
630037,941,987
630038,948,984
630039,950,987
630040,949,990
630041,951,989
630042,949,990
630043,950,984
630044,947,985
630045,945,985
630046,946,986
630047,947,989
630048,948,989
630049,946,988
630050,945,987
630051,945,987
630052,946,989
630053,949,988
630054,947,988
630055,946,986
630056,943,986
630057,944,987
630058,946,991
630059,949,989
630060,947,988
630061,944,988
630062,944,986
630063,942,985
630064,945,991
630065,946,991
630066,946,989
630067,944,987
630068,942,988
630069,943,988
630070,945,991
630071,946,994
630072,945,991
630073,944,988
630074,944,988
630075,945,990
630076,946,991
630077,945,989
630078,946,989
630079,944,990
630080,942,989
630081,943,989
630082,945,994
630083,948,992
630084,946,992
630085,946,988
630086,943,987
630087,946,990
630088,948,991
630089,950,990
630090,950,989
630091,948,989
630092,945,988
630093,945,989
630094,945,990
630095,950,989
630096,950,988
630097,949,984
630098,945,983
630099,942,985
630100,946,987
630101,947,988
630102,946,987
630103,946,982
630104,947,980
630105,946,978
630106,946,981
630107,949,981
630108,948,979
630109,947,975
630110,944,974
630111,943,974
630112,946,975
630113,948,975
630114,948,973
630115,945,970
630116,943,970
630117,945,971
630118,945,974
630119,950,974
630120,948,972
630121,945,975
630122,945,976
630123,945,980
630124,947,983
630125,951,984
630126,949,985
630127,950,986
630128,951,989
630129,954,989
630130,953,992
630131,957,993
630132,958,995
630133,957,994
630134,957,994
630135,957,995
630136,959,1000
630137,960,999
630138,958,996
630139,957,997
630140,959,996
630141,959,999
630142,959,1002
630143,962,1000
630144,964,1000
630145,965,997
630146,964,998
630147,963,1000
630148,961,1000
630149,962,998
630150,965,1002
630151,961,999
630152,962,1001
630153,958,1001
630154,962,1002
630155,964,1004
630156,963,1002
630157,960,998
630158,959,999
630159,959,998
630160,962,1000
630161,962,999
630162,961,1000
630163,959,999
630164,959,998
630165,959,997
630166,960,1001
630167,962,999
630168,959,998
630169,958,997
630170,957,996
630171,956,995
630172,958,999
630173,961,998
630174,959,996
630175,957,993
630176,955,992
630177,957,992
630178,956,994
630179,956,996
630180,950,998
630181,949,995
630182,948,991
630183,949,992
630184,950,991
630185,950,992
630186,948,992
630187,947,988
630188,947,988
630189,948,994
630190,949,996
630191,952,997
630192,951,992
630193,952,987
630194,949,986
630195,946,987
630196,945,991
630197,949,992
630198,949,992
630199,947,991
630200,947,990
630201,945,988
630202,947,990
630203,949,991
630204,949,988
630205,948,985
630206,946,982
630207,947,986
630208,948,991
630209,948,988
630210,947,986
630211,943,985
630212,944,985
630213,944,987
630214,947,990
630215,952,990
630216,954,990
630217,953,987
630218,957,988
630219,956,988
630220,959,989
630221,960,992
630222,962,990
630223,964,991
630224,964,993
630225,964,993
630226,968,996
630227,973,998
630228,969,997
630229,968,992
630230,964,992
630231,962,994
630232,962,998
630233,966,998
630234,964,1001
630235,966,997
630236,966,997
630237,964,999
630238,963,998
630239,962,999
630240,960,997
630241,961,995
630242,964,991
630243,963,992
630244,960,992
630245,957,993
630246,956,993
630247,952,993
630248,950,991
630249,948,991
630250,946,993
630251,950,992
630252,947,988
630253,946,986
630254,941,983
630255,940,984
630256,941,989
630257,942,990
630258,938,989
630259,937,985
630260,937,982
630261,938,983
630262,936,985
630263,937,988
630264,937,986
630265,935,983
630266,932,982
630267,932,985
630268,932,986
630269,935,985
630270,933,985
630271,931,983
630272,931,983
630273,932,978
630274,933,976
630275,933,972
630276,924,969
630277,915,961
630278,910,960
630279,908,974
630280,902,993
630281,902,1017
630282,909,1038
630283,932,1053
630284,959,1069
630285,998,1093
630286,1047,1121
630287,1110,1141
630288,1165,1136
630289,1199,1079
630290,1200,1003
630291,1155,954
630292,1076,945
630293,989,960
630294,927,971
630295,903,973
630296,903,971
630297,915,976
630298,926,977
630299,931,978
630300,926,978
630301,924,979
630302,924,980
630303,929,984
630304,932,985
630305,932,985
630306,926,986
630307,925,985
630308,924,985
630309,926,985
630310,930,984
630311,932,980
630312,930,977
630313,926,975
630314,922,979
630315,920,982
630316,922,982
630317,927,985
630318,928,984
630319,928,982
630320,926,980
630321,923,980
630322,924,983
630323,924,985
630324,921,984
630325,920,981
630326,920,980
630327,919,984
630328,925,985
630329,927,986
630330,928,983
630331,927,984
630332,925,982
630333,923,983
630334,925,984
630335,925,983
630336,922,985
630337,920,984
630338,920,979
630339,921,982
630340,922,983
630341,922,981
630342,921,983
630343,917,985
630344,916,981
630345,917,983
630346,920,982
630347,923,981
630348,922,982
630349,919,980
630350,921,981
630351,920,983
630352,924,985
630353,925,985
630354,925,982
630355,923,979
630356,921,979
630357,921,978
630358,923,981
630359,925,982
630360,924,981
630361,922,978
630362,921,976
630363,919,977
630364,920,978
630365,921,975
630366,922,976
630367,919,971
630368,919,970
630369,915,969
630370,916,971
630371,918,971
630372,917,973
630373,914,968
630374,911,966
630375,911,965
630376,914,967
630377,917,970
630378,917,967
630379,917,964
630380,918,961
630381,915,961
630382,915,963
630383,916,962
630384,914,963
630385,913,960
630386,908,960
630387,908,965
630388,909,967
630389,914,970
630390,915,972
630391,916,973
630392,916,973
630393,917,976
630394,922,982
630395,925,985
630396,925,987
630397,925,984
630398,926,985
630399,928,987
630400,929,988
630401,934,989
630402,936,990
630403,937,992
630404,936,993
630405,939,994
630406,940,994
630407,939,994
630408,937,996
630409,937,992
630410,935,993
630411,935,995
630412,939,998
630413,939,995
630414,936,996
630415,936,992
630416,935,993
630417,936,994
630418,938,995
630419,938,996
630420,938,997
630421,937,994
630422,937,994
630423,936,996
630424,940,997
630425,942,994
630426,944,994
630427,946,994
630428,941,993
630429,941,995
630430,944,996
630431,947,996
630432,946,995
630433,944,992
630434,939,992
630435,936,992
630436,938,992
630437,939,995
630438,937,993
630439,936,991
630440,935,992
630441,932,994
630442,934,996
630443,938,996
630444,936,994
630445,937,989
630446,935,990
630447,935,989
630448,935,992
630449,936,992
630450,937,993
630451,933,990
630452,930,989
630453,932,989
630454,934,991
630455,935,991
630456,934,992
630457,932,991
630458,933,992
630459,932,992
630460,935,992
630461,940,993
630462,941,992
630463,937,988
630464,935,988
630465,934,990
630466,935,990
630467,934,990
630468,936,990
630469,935,988
630470,935,988
630471,934,990
630472,937,993
630473,934,996
630474,933,993
630475,932,991
630476,934,988
630477,935,990
630478,936,991
630479,938,991
630480,940,991
630481,939,989
630482,941,990
630483,941,992
630484,945,994
630485,948,995
630486,950,995
630487,952,994
630488,953,994
630489,953,998
630490,955,1002
630491,957,1002
630492,958,1001
630493,955,998
630494,956,998
630495,954,999
630496,955,1003
630497,956,1003
630498,954,1006
630499,952,1007
630500,950,1003
630501,949,1004
630502,955,1007
630503,957,1005
630504,955,1006
630505,951,1006
630506,951,1004
630507,954,1006
630508,961,1003
630509,967,1003
630510,962,1002
630511,953,999
630512,948,997
630513,945,999
630514,946,1000
630515,948,1002
630516,944,1001
630517,938,998
630518,937,995
630519,933,997
630520,933,1000
630521,935,998
630522,932,997
630523,931,994
630524,930,991
630525,930,995
630526,933,998
630527,934,997
630528,932,998
630529,931,992
630530,928,993
630531,925,995
630532,926,994
630533,929,995
630534,929,996
630535,930,996
630536,930,995
630537,928,996
630538,928,996
630539,933,997
630540,931,995
630541,930,994
630542,927,988
630543,927,984
630544,926,983
630545,923,979
630546,913,973
630547,907,965
630548,903,969
630549,893,982
630550,889,1007
630551,892,1032
630552,904,1054
630553,924,1068
630554,947,1082
630555,968,1094
630556,997,1111
630557,1030,1129
630558,1073,1150
630559,1124,1168
630560,1174,1180
630561,1204,1163
630562,1220,1109
630563,1216,1031
630564,1173,974
630565,1094,960
630566,1002,967
630567,935,980
630568,905,987
630569,904,993
630570,911,995
630571,921,994
630572,924,992
630573,924,990
630574,927,995
630575,929,995
630576,927,994
630577,928,995
630578,925,992
630579,926,995
630580,926,995
630581,926,996
630582,926,996
630583,924,993
630584,925,994
630585,926,994
630586,928,996
630587,929,998
630588,927,996
630589,928,995
630590,927,992
630591,926,993
630592,929,998
630593,930,999
630594,929,1000
630595,927,998
630596,926,994
630597,923,996
630598,928,997
630599,928,998
630600,925,1001
630601,926,996
630602,924,997
630603,923,998
630604,927,999
630605,928,997
630606,929,1000
630607,927,998
630608,923,998
630609,922,997
630610,928,1001
630611,931,1002
630612,933,1000
630613,931,1000
630614,933,1000
630615,931,1002
630616,932,1005
630617,934,1002
630618,932,1000
630619,931,997
630620,930,994
630621,927,996
630622,930,998
630623,930,1000
630624,928,999
630625,927,998
630626,927,996
630627,926,996
630628,925,997
630629,929,999
630630,930,996
630631,927,996
630632,924,992
630633,924,994
630634,928,994
630635,930,995
630636,931,991
630637,928,990
630638,927,989
630639,925,988
630640,927,991
630641,930,987
630642,929,986
630643,928,984
630644,928,981
630645,928,982
630646,929,982
630647,929,983
630648,929,980
630649,928,978
630650,925,977
630651,924,976
630652,922,978
630653,927,980
630654,927,977
630655,924,977
630656,922,976
630657,922,977
630658,926,978
630659,927,980
630660,929,981
630661,927,981
630662,928,983
630663,925,985
630664,928,992
630665,933,993
630666,937,996
630667,937,996
630668,939,996
630669,938,1001
630670,940,1005
630671,943,1005
630672,944,1010
630673,942,1007
630674,944,1007
630675,946,1008
630676,948,1012
630677,951,1012
630678,950,1014
630679,950,1015
630680,949,1014
630681,949,1013
630682,950,1014
630683,951,1016
630684,951,1014
630685,950,1013
630686,947,1011
630687,946,1012
630688,950,1015
630689,953,1015
630690,950,1013
630691,950,1009
630692,949,1010
630693,951,1011
630694,953,1013
630695,955,1017
630696,954,1015
630697,953,1012
630698,951,1011
630699,948,1012
630700,950,1013
630701,952,1011
630702,949,1014
630703,949,1010
630704,947,1010
630705,948,1011
630706,950,1013
630707,952,1011
630708,951,1010
630709,948,1007
630710,947,1006
630711,947,1010
630712,950,1012
630713,951,1011
630714,949,1009
630715,949,1007
630716,946,1009
630717,945,1008
630718,948,1010
630719,948,1009
630720,950,1009
630721,947,1008
630722,947,1005
630723,947,1008
630724,947,1009
630725,948,1010
630726,947,1009
630727,945,1003
630728,944,1002
630729,943,1003
630730,945,1005
630731,948,1005
630732,945,1007
630733,944,1002
630734,944,1001
630735,942,1003
630736,942,1001
630737,944,1006
630738,943,1004
630739,942,1002
630740,940,1001
630741,940,1002
630742,941,1003
630743,943,1003
630744,943,1005
630745,942,1001
630746,942,1001
630747,942,1003
630748,945,1005
630749,950,1006
630750,947,1006
630751,945,1003
630752,944,1000
630753,944,1002
630754,947,1004
630755,951,1005
630756,952,1004
630757,951,1003
630758,951,1004
630759,953,1004
630760,956,1006
630761,961,1008
630762,962,1007
630763,962,1010
630764,959,1008
630765,959,1012
630766,965,1013
630767,969,1014
630768,970,1015
630769,972,1011
630770,969,1011
630771,969,1012
630772,971,1015
630773,973,1018
630774,969,1020
630775,968,1021
630776,966,1018
630777,968,1018
630778,971,1021
630779,970,1019
630780,968,1022
630781,965,1019
630782,966,1019
630783,967,1019
630784,972,1022
630785,978,1019
630786,979,1017
630787,976,1011
630788,970,1012
630789,965,1012
630790,963,1012
630791,962,1014
630792,959,1012
630793,955,1011
630794,951,1008
630795,950,1008
630796,950,1008
630797,951,1008
630798,951,1009
630799,951,1008
630800,948,1006
630801,945,1006
630802,948,1008
630803,950,1008
630804,950,1008
630805,945,1004
630806,944,1003
630807,944,1008
630808,947,1008
630809,946,1010
630810,947,1006
630811,945,1007
630812,942,1006
630813,944,1005
630814,945,1010
630815,949,1008
630816,948,1004
630817,949,996
630818,943,989
630819,937,986
630820,929,983
630821,924,980
630822,922,979
630823,913,991
630824,907,1013
630825,905,1044
630826,921,1071
630827,944,1089
630828,972,1102
630829,996,1111
630830,1020,1123
630831,1044,1142
630832,1076,1156
630833,1118,1172
630834,1157,1189
630835,1194,1207
630836,1218,1212
630837,1237,1184
630838,1248,1118
630839,1242,1035
630840,1190,985
630841,1102,983
630842,1010,993
630843,947,999
630844,923,1003
630845,926,1005
630846,935,1007
630847,941,1003
630848,944,1001
630849,942,1002
630850,947,1003
630851,947,1004
630852,948,1004
630853,946,1001
630854,945,1000
630855,944,1001
630856,944,1002
630857,946,1003
630858,946,1004
630859,945,1002
630860,945,1003
630861,944,1003
630862,947,1004
630863,952,1004
630864,948,1003
630865,946,1001
630866,947,1000
630867,944,1001
630868,947,1004
630869,945,1005
630870,944,1004
630871,944,1002
630872,942,1002
630873,942,1004
630874,945,1006
630875,947,1006
630876,946,1006
630877,946,1005
630878,942,1003
630879,942,1005
630880,943,1006
630881,946,1008
630882,947,1006
630883,946,1004
630884,944,1003
630885,945,1004
630886,946,1005
630887,949,1006
630888,950,1006
630889,950,1003
630890,947,1002
630891,949,1003
630892,950,1006
630893,952,1006
630894,952,1005
630895,951,1007
630896,950,1004
630897,949,1004
630898,951,1003
630899,953,1005
630900,951,1006
630901,949,1002
630902,945,1001
630903,945,1006
630904,948,1005
630905,953,1005
630906,953,1004
630907,951,1004
630908,950,1001
630909,948,1001
630910,950,1003
630911,951,1003
630912,950,1001
630913,949,999
630914,951,995
630915,950,998
630916,952,996
630917,955,998
630918,954,995
630919,951,994
630920,950,994
630921,950,993
630922,953,993
630923,956,992
630924,955,992
630925,954,989
630926,952,986
630927,952,988
630928,955,992
630929,953,992
630930,955,992
630931,954,988
630932,952,987
630933,951,990
630934,955,992
630935,956,996
630936,956,995
630937,955,997
630938,955,999
630939,957,1003
630940,960,1005
630941,963,1007
630942,962,1008
630943,963,1009
630944,964,1008
630945,965,1012
630946,967,1014
630947,969,1015
630948,970,1015
630949,971,1015
630950,968,1015
630951,970,1017
630952,972,1021
630953,976,1020
630954,976,1021
630955,972,1017
630956,973,1015
630957,973,1018
630958,975,1019
630959,974,1020
630960,975,1018
630961,974,1017
630962,973,1014
630963,971,1016
630964,972,1019
630965,972,1022
630966,972,1021
630967,973,1019
630968,972,1015
630969,970,1015
630970,970,1018
630971,972,1019
630972,970,1018
630973,971,1016
630974,970,1015
630975,969,1015
630976,973,1016
630977,972,1018
630978,973,1017
630979,972,1016
630980,970,1015
630981,969,1014
630982,970,1018
630983,974,1016
630984,972,1016
630985,972,1013
630986,971,1013
630987,969,1014
630988,968,1017
630989,971,1017
630990,971,1016
630991,970,1014
630992,969,1012
630993,968,1012
630994,969,1011
630995,971,1015
630996,968,1013
630997,966,1011
630998,964,1010
630999,962,1011
631000,964,1010
631001,964,1012
631002,965,1010
631003,964,1012
631004,963,1008
631005,961,1011
631006,964,1012
631007,966,1010
631008,964,1008
631009,963,1006
631010,963,1005
631011,962,1007
631012,964,1009
631013,965,1010
631014,965,1011
631015,964,1007
631016,965,1005
631017,964,1008
631018,968,1010
631019,968,1009
631020,968,1007
631021,968,1005
631022,968,1005
631023,967,1008
631024,968,1010
631025,970,1011
631026,970,1008
631027,971,1005
631028,969,1003
631029,973,1004
631030,977,1009
631031,981,1012
631032,980,1013
631033,981,1010
631034,980,1009
631035,980,1010
631036,981,1011
631037,986,1011
631038,988,1014
631039,989,1015
631040,988,1015
631041,989,1016
631042,993,1018
631043,994,1016
631044,994,1016
631045,991,1014
631046,986,1016
631047,984,1018
631048,986,1021
631049,988,1022
631050,989,1022
631051,988,1019
631052,984,1018
631053,983,1019
631054,985,1018
631055,990,1018
631056,993,1015
631057,993,1013
631058,989,1009
631059,980,1012
631060,977,1014
631061,977,1012
631062,977,1012
631063,971,1010
631064,968,1007
631065,964,1008
631066,968,1009
631067,967,1013
631068,964,1008
631069,963,1005
631070,962,1005
631071,964,1006
631072,966,1007
631073,968,1008
631074,966,1007
631075,965,1005
631076,965,1004
631077,967,1006
631078,967,1008
631079,967,1006
631080,965,1008
631081,965,1005
631082,963,1002
631083,960,1002
631084,962,1004
631085,962,1005
631086,962,1006
631087,959,1004
631088,959,1003
631089,956,1005
631090,961,1004
631091,961,1002
631092,962,998
631093,960,992
631094,957,986
631095,951,984
631096,946,980
631097,942,978
631098,939,980
631099,933,992
631100,923,1018
631101,922,1042
631102,937,1066
631103,959,1084
631104,989,1102
631105,1017,1123
631106,1056,1144
631107,1109,1166
631108,1166,1173
631109,1207,1149
631110,1226,1084
631111,1217,1018
631112,1173,979
631113,1095,977
631114,1017,987
631115,961,994
631116,935,994
631117,932,995
631118,942,999
631119,951,1000
631120,958,1001
631121,960,1002
631122,959,998
631123,960,994
631124,957,996
631125,956,999
631126,961,999
631127,960,1002
631128,961,1002
631129,960,997
631130,957,997
631131,956,999
631132,958,1000
631133,959,998
631134,958,1000
631135,958,999
631136,955,998
631137,956,1001
631138,957,1003
631139,958,1001
631140,959,1002
631141,961,1000
631142,957,1000
631143,958,1003
631144,957,1005
631145,960,1003
631146,961,1004
631147,960,1003
631148,959,1004
631149,961,1004
631150,961,1003
631151,962,1006
631152,963,1004
631153,960,1002
631154,960,1001
631155,960,1002
631156,961,1004
631157,963,1006
631158,963,1003
631159,960,1002
631160,959,1001
631161,958,1001
631162,960,1003
631163,962,1005
631164,962,1006
631165,960,1005
631166,960,1002
631167,958,1002
631168,960,1003
631169,962,1004
631170,963,1004
631171,962,1003
631172,961,1002
631173,959,1002
631174,962,1004
631175,964,1005
631176,964,1004
631177,962,1004
631178,960,1000
631179,959,1000
631180,962,1003
631181,966,1003
631182,966,1002
631183,965,1000
631184,964,999
631185,964,996
631186,966,1000
631187,967,1000
631188,966,998
631189,964,997
631190,964,993
631191,963,992
631192,965,995
631193,968,993
631194,966,993
631195,965,989
631196,962,988
631197,964,989
631198,965,990
631199,967,989
631200,965,988
631201,963,986
631202,961,986
631203,963,984
631204,965,986
631205,967,986
631206,968,987
631207,969,988
631208,966,987
631209,967,985
631210,968,990
631211,972,988
631212,971,990
631213,970,989
631214,968,986
631215,966,991
631216,971,997
631217,973,997
631218,972,999
631219,974,999
631220,972,998
631221,973,1002
631222,976,1005
631223,977,1006
631224,976,1008
631225,978,1008
631226,977,1009
631227,977,1010
631228,980,1011
631229,981,1012
631230,983,1012
631231,981,1011
631232,981,1008
631233,979,1011
631234,982,1014
631235,982,1014
631236,983,1013
631237,980,1011
631238,981,1009
631239,981,1010
631240,984,1013
631241,985,1012
631242,986,1014
631243,985,1010
631244,982,1009
631245,981,1009
631246,984,1012
631247,984,1011
631248,983,1007
631249,980,1007
631250,979,1010
631251,976,1009
631252,977,1011
631253,979,1009
631254,980,1010
631255,980,1007
631256,978,1006
631257,976,1006
631258,977,1010
631259,978,1009
631260,977,1010
631261,977,1008
631262,975,1006
631263,973,1007
631264,975,1008
631265,976,1010
631266,976,1009
631267,975,1008
631268,976,1004
631269,976,1009
631270,977,1009
631271,979,1013
631272,977,1008
631273,974,1004
631274,972,1004
631275,970,1004
631276,968,1005
631277,973,1006
631278,974,1006
631279,973,1003
631280,970,1000
631281,968,1002
631282,968,1003
631283,973,1006
631284,972,1004
631285,971,1002
631286,968,1001
631287,969,1002
631288,969,1003
631289,972,1003
631290,971,1002
631291,970,999
631292,967,999
631293,965,1001
631294,970,1002
631295,967,1002
631296,969,1002
631297,969,1002
631298,967,999
631299,968,1000
631300,970,1001
631301,973,1003
631302,974,1003
631303,972,1000
631304,972,1000
631305,976,1000
631306,981,1001
631307,982,1002
631308,982,1002
631309,980,1000
631310,980,1002
631311,981,1005
631312,984,1006
631313,989,1009
631314,990,1009
631315,990,1007
631316,988,1006
631317,990,1006
631318,993,1011
631319,993,1012
631320,991,1013
631321,989,1013
631322,984,1011
631323,984,1013
631324,982,1014
631325,987,1014
631326,989,1015
631327,985,1011
631328,983,1007
631329,985,1006
631330,991,1006
631331,993,1004
631332,986,1004
631333,978,1001
631334,974,1002
631335,971,1006
631336,971,1007
631337,969,1004
631338,965,1004
631339,961,998
631340,964,997
631341,962,998
631342,962,998
631343,960,1001
631344,962,1000
631345,960,998
631346,956,995
631347,955,999
631348,961,998
631349,961,999
631350,958,998
631351,956,997
631352,952,996
631353,950,999
631354,952,1000
631355,955,1000
631356,956,998
631357,956,996
631358,954,997
631359,953,995
631360,954,994
631361,955,990
631362,950,984
631363,946,978
631364,935,972
631365,928,969
631366,926,974
631367,920,993
631368,917,1018
631369,920,1040
631370,933,1054
631371,961,1068
631372,997,1083
631373,1036,1110
631374,1087,1137
631375,1145,1152
631376,1190,1140
631377,1217,1086
631378,1218,1018
631379,1182,965
631380,1103,951
631381,1014,961
631382,947,971
631383,916,979
631384,911,986
631385,915,986
631386,922,991
631387,928,990
631388,934,989
631389,940,988
631390,945,990
631391,944,989
631392,947,990
631393,944,990
631394,943,988
631395,944,990
631396,945,992
631397,948,993
631398,948,992
631399,947,989
631400,945,988
631401,943,990
631402,943,994
631403,947,991
631404,947,993
631405,944,987
631406,941,989
631407,938,989
631408,941,994
631409,941,998
631410,942,997
631411,942,993
631412,942,994
631413,941,993
631414,944,994
631415,948,994
631416,945,996
631417,942,993
631418,941,989
631419,938,990
631420,942,992
631421,943,994
631422,940,990
631423,942,988
631424,941,987
631425,939,992
631426,941,994
631427,944,994
631428,945,993
631429,943,990
631430,942,986
631431,937,988
631432,939,994
631433,942,995
631434,942,992
631435,939,992
631436,940,992
631437,939,991
631438,943,992
631439,944,992
631440,943,988
631441,942,990
631442,939,987
631443,939,990
631444,942,991
631445,942,988
631446,941,989
631447,941,987
631448,938,985
631449,938,985
631450,941,984
631451,941,987
631452,939,986
631453,938,985
631454,939,979
631455,940,977
631456,941,980
631457,943,980
631458,943,980
631459,940,976
631460,939,974
631461,936,971
631462,937,970
631463,938,969
631464,937,971
631465,935,972
631466,933,968
631467,932,965
631468,933,968
631469,932,969
631470,931,967
631471,926,964
631472,928,964
631473,928,966
631474,930,965
631475,936,966
631476,935,967
631477,933,970
631478,931,969
631479,933,970
631480,937,975
631481,937,978
631482,937,978
631483,939,977
631484,939,979
631485,939,983
631486,944,986
631487,950,988
631488,954,989
631489,954,987
631490,948,989
631491,950,988
631492,952,993
631493,952,996
631494,956,997
631495,958,991
631496,956,986
631497,954,988
631498,952,991
631499,955,992
631500,955,995
631501,954,991
631502,951,993
631503,951,996
631504,952,995
631505,953,994
631506,955,993
631507,953,991
631508,952,989
631509,950,989
631510,952,992
631511,953,991
631512,950,992
631513,951,991
631514,950,990
631515,951,991
631516,957,993
631517,958,993
631518,958,990
631519,954,989
631520,953,985
631521,951,986
631522,955,990
631523,954,990
631524,952,990
631525,953,988
631526,949,987
631527,950,987
631528,949,988
631529,949,989
631530,950,991
631531,949,990
631532,949,987
631533,947,989
631534,948,988
631535,949,983
631536,948,980
631537,945,977
631538,942,977
631539,940,980
631540,940,983
631541,944,985
631542,946,987
631543,949,983
631544,946,982
631545,947,980
631546,947,981
631547,948,981
631548,947,980
631549,942,979
631550,938,979
631551,937,980
631552,942,981
631553,944,983
631554,945,983
631555,943,979
631556,942,980
631557,940,978
631558,941,980
631559,940,981
631560,942,981
631561,944,980
631562,944,979
631563,946,979
631564,950,980
631565,952,981
631566,953,979
631567,953,979
631568,954,980
631569,955,982
631570,959,986
631571,963,985
631572,967,984
631573,966,985
631574,963,985
631575,965,988
631576,965,987
631577,969,988
631578,969,987
631579,967,986
631580,963,984
631581,958,989
631582,961,994
631583,963,993
631584,966,991
631585,968,989
631586,963,992
631587,961,991
631588,960,992
631589,960,990
631590,959,987
631591,960,986
631592,963,983
631593,965,985
631594,968,985
631595,965,986
631596,960,986
631597,953,981
631598,953,978
631599,947,981
631600,946,981
631601,946,982
631602,943,984
631603,941,981
631604,938,977
631605,942,977
631606,942,981
631607,944,981
631608,945,982
631609,943,979
631610,941,979
631611,937,979
631612,938,980
631613,940,982
631614,942,981
631615,940,980
631616,938,979
631617,936,978
631618,939,982
631619,938,980
631620,940,976
631621,937,972
631622,934,964
631623,927,962
631624,922,958
631625,918,965
631626,911,978
631627,904,1004
631628,904,1029
631629,924,1050
631630,956,1068
631631,995,1084
631632,1040,1108
631633,1098,1131
631634,1156,1143
631635,1203,1106
631636,1223,1029
631637,1200,960
631638,1121,933
631639,1015,946
631640,937,961
631641,905,971
631642,908,976
631643,921,981
631644,934,982
631645,939,980
631646,938,977
631647,935,978
631648,935,980
631649,939,982
631650,939,982
631651,938,980
631652,936,979
631653,937,980
631654,939,984
631655,939,983
631656,937,985
631657,935,983
631658,936,982
631659,934,982
631660,935,986
631661,936,986
631662,938,986
631663,938,984
631664,934,984
631665,934,984
631666,937,986
631667,937,984
631668,936,988
631669,935,986
631670,935,986
631671,935,986
631672,939,986
631673,943,989
631674,941,988
631675,941,986
631676,941,985
631677,938,988
631678,941,990
631679,941,990
631680,943,991
631681,938,988
631682,937,985
631683,936,987
631684,937,990
631685,939,992
631686,941,992
631687,941,991
631688,937,988
631689,937,990
631690,941,990
631691,943,990
631692,943,992
631693,943,990
631694,941,987
631695,941,989
631696,943,990
631697,946,990
631698,944,990
631699,944,989
631700,942,984
631701,944,987
631702,948,988
631703,949,990
631704,951,987
631705,946,986
631706,944,981
631707,943,982
631708,947,985
631709,947,982
631710,946,983
631711,945,978
631712,943,974
631713,941,973
631714,944,973
631715,943,975
631716,945,974
631717,942,971
631718,942,968
631719,941,968
631720,942,968
631721,945,969
631722,942,967
631723,941,967
631724,937,966
631725,934,969
631726,939,971
631727,942,971
631728,942,974
631729,940,972
631730,942,974
631731,943,977
631732,947,981
631733,949,988
631734,952,990
631735,954,991
631736,954,992
631737,956,993
631738,961,997
631739,962,1003
631740,965,1002
631741,964,1002
631742,964,1000
631743,966,1000
631744,968,1003
631745,970,1004
631746,970,1006
631747,972,1004
631748,969,1002
631749,970,1006
631750,973,1005
631751,971,1008
631752,971,1007
631753,972,1004
631754,968,1003
631755,970,1006
631756,968,1005
631757,971,1008
631758,970,1007
631759,971,1006
631760,966,1004
631761,967,1005
631762,969,1009
631763,973,1008
631764,972,1009
631765,970,1007
631766,968,1006
631767,967,1006
631768,971,1008
631769,971,1009
631770,973,1008
631771,972,1006
631772,969,1005
631773,969,1007
631774,969,1009
631775,971,1007
631776,971,1007
631777,969,1005
631778,967,1001
631779,965,1006
631780,965,1009
631781,970,1006
631782,965,1009
631783,967,1005
631784,963,1003
631785,963,1004
631786,963,1006
631787,964,1008
631788,966,1007
631789,965,1004
631790,962,1003
631791,963,1003
631792,965,1004
631793,967,1007
631794,967,1004
631795,964,1003
631796,962,1003
631797,963,1004
631798,964,1003
631799,966,1005
631800,966,1002
631801,964,1002
631802,963,1000
631803,962,998
631804,964,1004
631805,967,1003
631806,966,1006
631807,965,1002
631808,961,1000
631809,961,1002
631810,965,1006
631811,965,1003
631812,965,1002
631813,964,1004
631814,964,1001
631815,963,1004
631816,964,1005
631817,967,1007
631818,967,1005
631819,967,1003
631820,965,1002
631821,966,1002
631822,967,1007
631823,969,1004
631824,969,1005
631825,971,1003
631826,971,1002
631827,976,1003
631828,978,1006
631829,981,1010
631830,983,1008
631831,983,1006
631832,980,1007
631833,979,1010
631834,985,1012
631835,990,1014
631836,988,1016
631837,992,1013
631838,987,1012
631839,987,1016
631840,988,1016
631841,989,1018
631842,987,1019
631843,987,1019
631844,986,1016
631845,987,1016
631846,989,1021
631847,987,1021
631848,982,1021
631849,981,1018
631850,981,1016
631851,986,1018
631852,991,1018
631853,996,1016
631854,996,1014
631855,989,1012
631856,983,1010
631857,974,1012
631858,971,1013
631859,971,1013
631860,971,1013
631861,966,1005
631862,964,1004
631863,962,1006
631864,960,1011
631865,961,1010
631866,962,1010
631867,963,1006
631868,962,1005
631869,959,1007
631870,959,1007
631871,960,1010
631872,959,1009
631873,960,1008
631874,959,1005
631875,957,1007
631876,959,1010
631877,961,1010
631878,959,1011
631879,959,1008
631880,957,1004
631881,955,998
631882,955,996
631883,950,991
631884,943,985
631885,935,981
631886,930,980
631887,925,1001
631888,921,1032
631889,922,1059
631890,943,1081
631891,972,1096
631892,1006,1116
631893,1045,1137
631894,1098,1158
631895,1155,1182
631896,1204,1201
631897,1231,1211
631898,1250,1197
631899,1261,1147
631900,1254,1068
631901,1215,1005
631902,1142,983
631903,1045,991
631904,969,999
631905,931,1005
631906,929,1007
631907,944,1008
631908,954,1010
631909,957,1008
631910,954,1006
631911,952,1007
631912,956,1008
631913,959,1010
631914,959,1007
631915,956,1006
631916,954,1006
631917,952,1006
631918,953,1011
631919,953,1011
631920,953,1009
631921,952,1008
631922,952,1006
631923,949,1008
631924,951,1010
631925,953,1011
631926,953,1011
631927,954,1009
631928,952,1007
631929,948,1008
631930,950,1010
631931,952,1013
631932,952,1011
631933,950,1009
631934,949,1007
631935,948,1008
631936,952,1012
631937,953,1012
631938,956,1013
631939,953,1009
631940,953,1009
631941,953,1011
631942,953,1012
631943,955,1013
631944,957,1012
631945,952,1008
631946,952,1008
631947,950,1009
631948,947,1011
631949,952,1013
631950,952,1012
631951,950,1009
631952,951,1008
631953,949,1007
631954,951,1009
631955,952,1010
631956,954,1009
631957,951,1008
631958,951,1006
631959,951,1007
631960,953,1007
631961,957,1007
631962,954,1008
631963,956,1005
631964,952,1005
631965,951,1005
631966,951,1003
631967,955,1004
631968,954,1004
631969,954,999
631970,953,1000
631971,952,999
631972,950,999
631973,953,999
631974,955,997
631975,952,995
631976,953,990
631977,951,991
631978,953,995
631979,958,995
631980,957,993
631981,954,992
631982,953,991
631983,952,992
631984,955,993
631985,955,995
631986,956,994
631987,953,996
631988,952,994
631989,953,996
631990,957,998
631991,956,1002
631992,956,1003
631993,957,1001
631994,955,1002
631995,956,1007
631996,960,1011
631997,963,1013
631998,963,1015
631999,963,1012
632000,965,1015
632001,964,1016
632002,969,1019
632003,971,1024
632004,970,1022
632005,968,1022
632006,967,1020
632007,966,1023
632008,967,1023
632009,970,1024
632010,972,1025
632011,971,1021
632012,969,1020
632013,970,1023
632014,971,1025
632015,974,1027
632016,973,1023
632017,973,1022
632018,968,1021
632019,968,1020
632020,969,1023
632021,970,1025
632022,970,1025
632023,970,1022
632024,964,1020
632025,964,1020
632026,966,1021
632027,969,1022
632028,970,1023
632029,970,1023
632030,966,1020
632031,967,1020
632032,964,1021
632033,966,1024
632034,968,1022
632035,967,1021
632036,965,1019
632037,967,1021
632038,968,1022
632039,968,1022
632040,969,1020
632041,969,1017
632042,966,1018
632043,965,1018
632044,966,1019
632045,966,1023
632046,967,1021
632047,963,1016
632048,962,1016
632049,958,1017
632050,960,1018
632051,964,1018
632052,961,1017
632053,961,1017
632054,959,1014
632055,958,1014
632056,958,1016
632057,960,1018
632058,962,1017
632059,960,1015
632060,957,1014
632061,957,1015
632062,958,1017
632063,962,1018
632064,960,1016
632065,959,1015
632066,957,1013
632067,958,1016
632068,959,1018
632069,962,1019
632070,963,1016
632071,962,1012
632072,958,1012
632073,958,1012
632074,960,1015
632075,962,1016
632076,964,1016
632077,964,1017
632078,965,1013
632079,965,1012
632080,969,1015
632081,971,1015
632082,972,1015
632083,974,1011
632084,974,1010
632085,971,1012
632086,972,1017
632087,973,1018
632088,974,1020
632089,972,1021
632090,974,1017
632091,978,1019
632092,980,1022
632093,983,1022
632094,983,1025
632095,983,1023
632096,983,1022
632097,981,1023
632098,984,1026
632099,986,1027
632100,984,1027
632101,983,1029
632102,981,1026
632103,979,1026
632104,980,1030
632105,982,1032
632106,984,1029
632107,985,1021
632108,984,1018
632109,980,1019
632110,973,1022
632111,970,1022
632112,968,1020
632113,965,1015
632114,961,1015
632115,956,1012
632116,955,1014
632117,953,1018
632118,954,1015
632119,950,1013
632120,950,1012
632121,949,1012
632122,950,1012
632123,953,1014
632124,953,1013
632125,952,1012
632126,950,1010
632127,949,1012
632128,952,1014
632129,953,1011
632130,953,1012
632131,951,1009
632132,950,1008
632133,946,1011
632134,948,1012
632135,950,1011
632136,950,1008
632137,948,999
632138,942,992
632139,936,989
632140,929,988
632141,923,983
632142,922,982
632143,918,985
632144,906,1002
632145,899,1026
632146,905,1049
632147,922,1062
632148,948,1071
632149,968,1075
632150,987,1086
632151,1005,1102
632152,1037,1121
632153,1076,1139
632154,1122,1160
632155,1166,1173
632156,1195,1161
632157,1214,1107
632158,1214,1034
632159,1180,982
632160,1100,975
632161,1005,986
632162,939,996
632163,911,1000
632164,913,1003
632165,927,1006
632166,940,1005
632167,943,1003
632168,943,1004
632169,941,1004
632170,943,1007
632171,946,1006
632172,945,1006
632173,944,1005
632174,940,1002
632175,939,1005
632176,941,1007
632177,942,1007
632178,943,1007
632179,943,1007
632180,942,1003
632181,941,1002
632182,944,1005
632183,945,1007
632184,945,1007
632185,944,1004
632186,941,1001
632187,940,1003
632188,941,1004
632189,941,1006
632190,942,1008
632191,941,1006
632192,942,1004
632193,941,1007
632194,942,1008
632195,943,1008
632196,942,1005
632197,938,1004
632198,938,1005
632199,935,1004
632200,939,1008
632201,942,1010
632202,945,1006
632203,944,1003
632204,942,1001
632205,943,1001
632206,944,1004
632207,944,1004
632208,944,1006
632209,944,1005
632210,942,1002
632211,941,1006
632212,946,1005
632213,947,1005
632214,946,1003
632215,945,1003
632216,942,1000
632217,942,1003
632218,943,1005
632219,946,1003
632220,947,1004
632221,944,1000
632222,942,998
632223,941,999
632224,942,999
632225,948,1000
632226,948,999
632227,948,995
632228,946,991
632229,944,991
632230,944,993
632231,946,993
632232,947,993
632233,946,988
632234,947,984
632235,944,984
632236,945,983
632237,946,985
632238,945,985
632239,942,982
632240,941,980
632241,940,980
632242,943,981
632243,943,983
632244,944,983
632245,942,981
632246,942,977
632247,941,980
632248,943,981
632249,943,984
632250,945,988
632251,944,987
632252,944,986
632253,944,988
632254,945,990
632255,948,996
632256,946,995
632257,950,995
632258,950,995
632259,950,997
632260,954,1002
632261,954,1002
632262,956,1001
632263,956,997
632264,955,998
632265,954,1000
632266,958,1005
632267,959,1002
632268,961,1003
632269,958,1000
632270,955,997
632271,955,1002
632272,956,1005
632273,958,1004
632274,961,1005
632275,961,1001
632276,960,994
632277,953,996
632278,957,1001
632279,958,1001
632280,955,1002
632281,955,1000
632282,954,997
632283,955,999
632284,956,1000
632285,957,1003
632286,954,1001
632287,953,997
632288,952,995
632289,952,996
632290,954,998
632291,957,999
632292,957,996
632293,954,993
632294,953,994
632295,950,996
632296,950,999
632297,954,998
632298,954,995
632299,953,991
632300,955,992
632301,953,992
632302,952,992
632303,953,992
632304,952,993
632305,950,991
632306,949,989
632307,946,989
632308,946,991
632309,949,990
632310,948,992
632311,949,989
632312,947,987
632313,946,988
632314,945,990
632315,944,989
632316,944,987
632317,945,985
632318,941,983
632319,941,985
632320,944,986
632321,944,988
632322,944,987
632323,945,985
632324,943,980
632325,944,979
632326,946,983
632327,948,984
632328,946,985
632329,944,983
632330,943,983
632331,941,985
632332,943,984
632333,946,985
632334,949,985
632335,946,982
632336,951,978
632337,950,981
632338,952,983
632339,957,985
632340,960,982
632341,958,979
632342,955,980
632343,955,983
632344,960,984
632345,963,987
632346,963,987
632347,961,987
632348,962,983
632349,966,987
632350,970,989
632351,972,988
632352,974,987
632353,970,985
632354,967,981
632355,963,985
632356,963,989
632357,963,989
632358,964,992
632359,963,991
632360,964,991
632361,963,992
632362,966,995
632363,969,993
632364,969,992
632365,966,985
632366,959,982
632367,951,984
632368,948,985
632369,948,987
632370,948,984
632371,943,980
632372,938,977
632373,934,976
632374,933,979
632375,932,980
632376,935,980
632377,937,980
632378,935,978
632379,934,977
632380,936,977
632381,937,980
632382,935,980
632383,933,977
632384,931,976
632385,927,976
632386,928,977
632387,930,977
632388,931,977
632389,931,977
632390,928,973
632391,925,974
632392,928,973
632393,927,976
632394,927,973
632395,923,964
632396,920,958
632397,912,958
632398,909,954
632399,907,952
632400,904,947
632401,896,947
632402,886,955
632403,880,974
632404,883,995
632405,894,1016
632406,913,1027
632407,932,1034
632408,951,1043
632409,976,1055
632410,1009,1080
632411,1059,1109
632412,1115,1127
632413,1161,1115
632414,1188,1063
632415,1193,993
632416,1164,945
632417,1100,931
632418,1012,942
632419,942,950
632420,904,959
632421,893,962
632422,899,969
632423,910,970
632424,920,967
632425,919,965
632426,916,963
632427,915,965
632428,918,969
632429,921,970
632430,923,968
632431,922,968
632432,920,965
632433,917,965
632434,920,968
632435,923,966
632436,923,968
632437,924,965
632438,920,967
632439,916,968
632440,919,970
632441,918,967
632442,915,965
632443,911,961
632444,910,962
632445,907,967
632446,911,969
632447,915,970
632448,919,969
632449,922,965
632450,919,964
632451,917,963
632452,918,967
632453,920,968
632454,918,969
632455,916,967
632456,917,964
632457,915,961
632458,915,967
632459,918,970
632460,918,966
632461,919,963
632462,920,959
632463,919,959
632464,916,964
632465,917,969
632466,917,968
632467,918,968
632468,915,965
632469,916,963
632470,919,963
632471,921,966
632472,921,965
632473,917,965
632474,915,962
632475,914,962
632476,916,964
632477,920,967
632478,917,963
632479,916,961
632480,913,957
632481,913,956
632482,913,960
632483,915,965
632484,918,965
632485,917,964
632486,919,958
632487,919,958
632488,921,957
632489,924,959
632490,921,957
632491,921,955
632492,918,951
632493,919,950
632494,918,951
632495,920,950
632496,920,949
632497,918,946
632498,918,945
632499,917,945
632500,915,946
632501,913,947
632502,911,943
632503,908,938
632504,906,935
632505,903,936
632506,907,937
632507,907,936
632508,909,940
632509,907,935
632510,905,934
632511,904,933
632512,908,937
632513,910,937
632514,912,941
632515,909,942
632516,910,944
632517,909,946
632518,913,951
632519,917,954
632520,919,954
632521,922,953
632522,925,954
632523,926,957
632524,929,958
632525,932,960
632526,935,960
632527,937,960
632528,936,960
632529,936,961
632530,934,964
632531,935,969
632532,934,968
632533,937,967
632534,938,966
632535,936,968
632536,936,969
632537,935,968
632538,938,966
632539,940,965
632540,936,962
632541,933,962
632542,934,962
632543,935,965
632544,936,964
632545,941,963
632546,939,962
632547,937,962
632548,937,963
632549,936,965
632550,938,965
632551,935,964
632552,935,963
632553,934,966
632554,936,966
632555,939,966
632556,940,964
632557,937,961
632558,936,960
632559,934,962
632560,933,964
632561,934,966
632562,935,964
632563,936,962
632564,936,962
632565,935,962
632566,936,965
632567,939,965
632568,940,965
632569,939,962
632570,937,959
632571,934,961
632572,933,962
632573,934,963
632574,936,960
632575,934,957
632576,931,958
632577,932,958
632578,933,960
632579,935,961
632580,934,959
632581,932,955
632582,932,953
632583,932,954
632584,934,957
632585,934,959
632586,934,959
632587,932,957
632588,930,956
632589,929,956
632590,929,956
632591,931,959
632592,932,959
632593,929,956
632594,930,955
632595,929,954
632596,932,958
632597,934,961
632598,933,958
632599,932,960
632600,934,958
632601,933,956
632602,934,958
632603,935,957
632604,937,954
632605,937,955
632606,938,955
632607,939,955
632608,943,957
632609,948,957
632610,949,957
632611,950,954
632612,950,953
632613,950,956
632614,951,960
632615,958,963
632616,958,961
632617,959,962
632618,958,962
632619,956,962
632620,957,962
632621,959,968
632622,959,965
632623,960,965
632624,960,961
632625,961,964
632626,961,966
632627,961,967
632628,962,967
632629,961,963
632630,957,963
632631,957,967
632632,959,971
632633,961,974
632634,959,975
632635,960,974
632636,962,972
632637,965,971
632638,968,969
632639,966,972
632640,961,968
632641,955,968
632642,951,968
632643,946,967
632644,944,966
632645,940,969
632646,940,964
632647,937,963
632648,935,963
632649,934,963
632650,936,966
632651,936,967
632652,937,966
632653,936,964
632654,934,963
632655,932,962
632656,932,964
632657,935,965
632658,936,968
632659,935,964
632660,934,966
632661,935,966
632662,935,966
632663,936,967
632664,937,968
632665,936,966
632666,935,963
632667,931,963
632668,934,959
632669,931,959
632670,928,952
632671,921,944
632672,913,940
632673,908,934
632674,907,937
632675,900,947
632676,893,961
632677,888,980
632678,893,1000
632679,905,1020
632680,927,1038
632681,954,1051
632682,983,1065
632683,1016,1083
632684,1059,1104
632685,1113,1130
632686,1169,1140
632687,1207,1111
632688,1223,1043
632689,1211,966
632690,1160,927
632691,1075,925
632692,990,940
632693,934,953
632694,916,960
632695,913,962
632696,919,965
632697,926,966
632698,933,968
632699,936,968
632700,936,970
632701,938,969
632702,938,968
632703,935,969
632704,935,970
632705,935,970
632706,936,971
632707,936,969
632708,935,969
632709,934,969
632710,936,975
632711,938,974
632712,937,974
632713,937,973
632714,936,971
632715,935,971
632716,937,972
632717,937,974
632718,938,974
632719,939,972
632720,938,973
632721,935,974
632722,939,975
632723,942,977
632724,941,974
632725,942,973
632726,938,974
632727,936,973
632728,939,976
632729,942,980
632730,942,979
632731,940,977
632732,938,976
632733,938,976
632734,940,977
632735,942,979
632736,945,976
632737,944,975
632738,942,974
632739,940,975
632740,939,978
632741,942,979
632742,944,978
632743,942,977
632744,941,978
632745,940,977
632746,939,978
632747,941,979
632748,941,979
632749,942,978
632750,940,978
632751,939,978
632752,940,979
632753,943,978
632754,943,978
632755,942,976
632756,941,976
632757,938,974
632758,941,978
632759,942,980
632760,944,979
632761,946,976
632762,943,974
632763,941,971
632764,942,972
632765,942,974
632766,942,972
632767,944,972
632768,942,972
632769,939,967
632770,940,967
632771,944,966
632772,943,965
632773,944,963
632774,942,960
632775,942,960
632776,943,963
632777,942,962
632778,943,959
632779,941,956
632780,941,957
632781,938,955
632782,939,958
632783,938,959
632784,938,958
632785,938,955
632786,936,954
632787,935,951
632788,937,955
632789,938,959
632790,942,959
632791,942,961
632792,941,960
632793,940,964
632794,943,968
632795,947,973
632796,948,973
632797,949,972
632798,952,973
632799,951,977
632800,954,982
632801,959,985
632802,960,986
632803,961,987
632804,962,987
632805,963,987
632806,968,991
632807,975,995
632808,973,992
632809,974,992
632810,972,993
632811,972,994
632812,975,995
632813,975,998
632814,979,994
632815,977,992
632816,975,992
632817,973,992
632818,972,994
632819,977,996
632820,973,996
632821,974,997
632822,971,993
632823,971,993
632824,972,993
632825,973,995
632826,974,993
632827,974,994
632828,972,994
632829,971,995
632830,972,995
632831,974,996
632832,974,998
632833,973,993
632834,970,993
632835,971,992
632836,969,994
632837,973,996
632838,974,995
632839,975,994
632840,974,992
632841,973,992
632842,973,992
632843,973,994
632844,972,991
632845,972,992
632846,971,990
632847,970,989
632848,970,993
632849,970,990
632850,970,993
632851,970,991
632852,970,990
632853,967,991
632854,970,991
632855,970,992
632856,970,988
632857,969,987
632858,967,985
632859,967,987
632860,968,989
632861,969,992
632862,971,990
632863,971,986
632864,970,987
632865,969,984
632866,969,988
632867,969,992
632868,972,989
632869,972,988
632870,971,986
632871,969,985
632872,968,987
632873,969,990
632874,970,988
632875,969,987
632876,970,985
632877,967,986
632878,970,987
632879,974,992
632880,977,989
632881,977,989
632882,976,986
632883,974,985
632884,976,987
632885,981,990
632886,986,988
632887,987,992
632888,985,988
632889,985,990
632890,989,990
632891,993,995
632892,993,996
632893,995,996
632894,994,996
632895,992,995
632896,995,996
632897,997,996
632898,997,998
632899,996,996
632900,994,996
632901,992,999
632902,994,1003
632903,996,1005
632904,997,1007
632905,995,1003
632906,998,1001
632907,1001,997
632908,1002,997
632909,994,998
632910,987,999
632911,983,997
632912,978,996
632913,978,994
632914,973,993
632915,972,994
632916,970,992
632917,967,992
632918,966,991
632919,965,990
632920,965,994
632921,967,993
632922,967,993
632923,969,991
632924,967,990
632925,966,989
632926,967,990
632927,970,993
632928,968,994
632929,968,991
632930,967,990
632931,965,988
632932,967,988
632933,965,992
632934,963,993
632935,965,989
632936,962,987
632937,960,988
632938,962,989
632939,962,993
632940,964,990
632941,962,982
632942,958,975
632943,953,970
632944,948,967
632945,941,963
632946,938,959
632947,934,961
632948,927,979
632949,919,1009
632950,921,1045
632951,938,1074
632952,974,1098
632953,1013,1122
632954,1050,1148
632955,1099,1178
632956,1162,1204
632957,1220,1206
632958,1257,1165
632959,1267,1084
632960,1249,1006
632961,1184,967
632962,1089,966
632963,1000,981
632964,948,982
632965,931,980
632966,934,981
632967,942,983
632968,949,986
632969,957,986
632970,960,984
632971,958,983
632972,955,982
632973,952,981
632974,954,982
632975,955,985
632976,956,983
632977,954,983
632978,953,980
632979,953,981
632980,950,984
632981,952,984
632982,954,985
632983,955,982
632984,952,981
632985,949,977
632986,952,983
632987,955,983
632988,957,985
632989,956,984
632990,955,984
632991,953,983
632992,953,985
632993,955,985
632994,957,985
632995,956,983
632996,955,982
632997,952,984
632998,950,984
632999,951,988
633000,955,986
633001,954,986
633002,953,984
633003,952,985
633004,952,988
633005,955,989
633006,958,988
633007,958,986
633008,955,983
633009,953,985
633010,955,986
633011,956,985
633012,959,987
633013,957,986
633014,955,984
633015,955,983
633016,955,986
633017,959,986
633018,958,985
633019,960,982
633020,959,982
633021,956,984
633022,958,982
633023,958,987
633024,957,986
633025,959,985
633026,959,982
633027,956,982
633028,958,980
633029,960,985
633030,961,983
633031,960,981
633032,959,978
633033,957,979
633034,957,980
633035,958,981
633036,960,977
633037,960,975
633038,959,973
633039,957,974
633040,958,974
633041,959,975
633042,962,975
633043,961,974
633044,960,970
633045,957,968
633046,959,969
633047,959,971
633048,959,969
633049,957,969
633050,957,967
633051,956,966
633052,956,966
633053,957,967
633054,959,968
633055,960,967
633056,958,968
633057,956,967
633058,958,974
633059,960,976
633060,962,978
633061,962,977
633062,962,977
633063,961,981
633064,962,981
633065,966,988
633066,969,991
633067,971,991
633068,973,994
633069,973,994
633070,975,996
633071,979,1001
633072,980,998
633073,981,998
633074,978,999
633075,978,999
633076,980,1003
633077,982,1002
633078,983,1002
633079,981,1001
633080,980,999
633081,977,1001
633082,979,1004
633083,980,1005
633084,981,1003
633085,981,1002
633086,980,999
633087,977,1000
633088,979,1000
633089,980,1003
633090,982,1002
633091,981,1002
633092,980,1002
633093,978,1001
633094,981,1005
633095,982,1005
633096,985,1004
633097,984,1001
633098,982,999
633099,980,999
633100,979,1003
633101,983,1004
633102,981,1003
633103,981,1002
633104,980,1001
633105,980,1001
633106,978,1000
633107,979,1003
633108,980,1001
633109,978,1000
633110,978,997
633111,975,997
633112,977,999
633113,978,1002
633114,978,1000
633115,976,997
633116,975,995
633117,975,993
633118,974,996
633119,977,999
633120,976,998
633121,977,996
633122,974,993
633123,970,994
633124,972,993
633125,975,995
633126,976,994
633127,975,993
633128,975,994
633129,974,990
633130,973,990
633131,976,994
633132,976,993
633133,975,991
633134,972,991
633135,965,991
633136,969,992
633137,969,992
633138,972,992
633139,969,989
633140,969,989
633141,970,990
633142,970,991
633143,971,996
633144,972,994
633145,973,992
633146,975,990
633147,975,989
633148,977,988
633149,979,992
633150,984,990
633151,982,991
633152,986,989
633153,985,990
633154,988,994
633155,990,993
633156,991,994
633157,992,995
633158,992,992
633159,990,994
633160,990,998
633161,995,999
633162,998,1000
633163,998,1001
633164,999,1001
633165,997,1001
633166,997,1003
633167,998,1001
633168,999,999
633169,999,998
633170,997,998
633171,993,997
633172,993,1000
633173,995,1006
633174,996,1007
633175,994,1008
633176,996,1006
633177,994,1007
633178,996,1009
633179,999,1009
633180,1005,1006
633181,1007,1003
633182,1004,1001
633183,992,999
633184,987,1000
633185,989,1002
633186,988,1000
633187,986,996
633188,979,995
633189,974,996
633190,973,999
633191,969,1000
633192,972,997
633193,972,994
633194,967,992
633195,966,994
633196,967,996
633197,968,997
633198,968,997
633199,967,996
633200,965,995
633201,961,992
633202,965,995
633203,965,994
633204,968,995
633205,964,997
633206,966,995
633207,963,994
633208,965,996
633209,967,996
633210,967,993
633211,967,988
633212,963,980
633213,958,977
633214,953,973
633215,946,971
633216,943,970
633217,938,980
633218,929,1003
633219,925,1033
633220,936,1060
633221,963,1083
633222,996,1106
633223,1028,1129
633224,1066,1152
633225,1121,1178
633226,1183,1204
633227,1232,1216
633228,1263,1205
633229,1276,1160
633230,1269,1092
633231,1229,1020
633232,1169,978
633233,1098,969
633234,1029,978
633235,972,985
633236,938,982
633237,926,986
633238,935,991
633239,947,994
633240,958,994
633241,959,992
633242,959,991
633243,954,987
633244,958,991
633245,962,991
633246,964,991
633247,960,990
633248,959,989
633249,958,990
633250,959,990
633251,961,993
633252,960,991
633253,960,990
633254,957,988
633255,955,992
633256,957,992
633257,959,993
633258,960,993
633259,958,992
633260,957,990
633261,954,992
633262,955,992
633263,956,995
633264,958,994
633265,957,992
633266,956,990
633267,956,991
633268,957,992
633269,957,995
633270,957,994
633271,957,993
633272,955,993
633273,958,991
633274,956,995
633275,957,997
633276,960,994
633277,959,995
633278,958,991
633279,956,990
633280,960,993
633281,960,995
633282,959,994
633283,960,993
633284,960,990
633285,953,988
633286,956,991
633287,956,994
633288,959,992
633289,956,992
633290,956,989
633291,956,989
633292,957,990
633293,960,990
633294,962,987
633295,959,986
633296,961,986
633297,956,985
633298,957,985
633299,960,986
633300,961,985
633301,962,983
633302,962,979
633303,960,980
633304,961,983
633305,962,984
633306,962,980
633307,962,979
633308,959,980
633309,959,979
633310,961,978
633311,963,975
633312,966,977
633313,965,973
633314,962,970
633315,956,968
633316,956,970
633317,961,972
633318,962,973
633319,964,970
633320,961,967
633321,958,968
633322,959,969
633323,961,971
633324,962,973
633325,961,972
633326,962,971
633327,959,975
633328,962,976
633329,965,980
633330,967,983
633331,965,986
633332,966,985
633333,965,988
633334,967,990
633335,969,995
633336,973,997
633337,973,997
633338,976,995
633339,974,996
633340,980,999
633341,982,999
633342,985,1000
633343,985,1000
633344,982,999
633345,980,998
633346,981,1002
633347,982,1005
633348,983,1005
633349,982,1005
633350,980,1000
633351,978,1000
633352,979,1000
633353,981,1001
633354,982,1003
633355,984,1003
633356,981,1002
633357,978,1003
633358,979,1005
633359,981,1006
633360,983,1005
633361,979,1006
633362,980,1002
633363,977,1001
633364,977,1003
633365,977,1005
633366,978,1004
633367,979,1003
633368,978,1000
633369,978,1001
633370,977,1002
633371,980,1003
633372,980,1002
633373,977,998
633374,976,998
633375,975,996
633376,974,999
633377,975,998
633378,978,1000
633379,975,997
633380,971,997
633381,969,996
633382,970,996
633383,970,997
633384,972,997
633385,971,995
633386,969,993
633387,968,994
633388,971,995
633389,971,997
633390,970,993
633391,968,993
633392,967,991
633393,965,992
633394,967,994
633395,970,996
633396,969,997
633397,972,994
633398,972,993
633399,970,990
633400,968,993
633401,967,994
633402,968,993
633403,969,993
633404,967,989
633405,965,993
633406,965,994
633407,967,996
633408,967,997
633409,967,992
633410,965,993
633411,962,991
633412,963,995
633413,965,994
633414,967,994
633415,967,995
633416,967,993
633417,968,993
633418,970,991
633419,973,993
633420,975,992
633421,977,991
633422,978,993
633423,976,993
633424,979,993
633425,984,994
633426,987,994
633427,985,997
633428,984,996
633429,986,997
633430,989,998
633431,993,1002
633432,995,1002
633433,994,1002
633434,994,1001
633435,992,1000
633436,992,1000
633437,990,1005
633438,989,1007
633439,991,1007
633440,991,1008
633441,990,1006
633442,990,1009
633443,993,1007
633444,997,1005
633445,1002,1004
633446,1000,998
633447,993,998
633448,987,999
633449,984,1001
633450,982,1001
633451,980,999
633452,978,996
633453,973,997
633454,968,998
633455,964,998
633456,966,998
633457,964,998
633458,962,995
633459,959,994
633460,960,997
633461,963,996
633462,964,995
633463,966,994
633464,962,993
633465,957,993
633466,959,993
633467,957,997
633468,960,996
633469,959,994
633470,957,990
633471,957,990
633472,954,993
633473,956,995
633474,957,995
633475,961,993
633476,961,989
633477,956,986
633478,955,986
633479,956,985
633480,954,977
633481,948,974
633482,939,966
633483,930,965
633484,930,968
633485,924,982
633486,915,1001
633487,915,1023
633488,925,1036
633489,945,1049
633490,969,1060
633491,994,1076
633492,1022,1089
633493,1060,1104
633494,1109,1119
633495,1155,1141
633496,1194,1165
633497,1221,1174
633498,1242,1156
633499,1255,1107
633500,1250,1036
633501,1212,975
633502,1143,952
633503,1062,957
633504,994,971
633505,947,978
633506,926,975
633507,923,979
633508,933,983
633509,944,987
633510,950,987
633511,948,987
633512,948,984
633513,947,982
633514,947,983
633515,949,984
633516,952,984
633517,950,985
633518,945,982
633519,945,982
633520,945,985
633521,947,986
633522,949,986
633523,950,986
633524,948,982
633525,946,982
633526,946,985
633527,949,986
633528,950,983
633529,948,983
633530,946,981
633531,941,984
633532,942,986
633533,945,990
633534,948,989
633535,948,984
633536,947,984
633537,944,982
633538,944,985
633539,946,986
633540,946,987
633541,945,987
633542,945,986
633543,943,983
633544,945,984
633545,946,985
633546,944,988
633547,944,991
633548,940,989
633549,943,988
633550,943,986
633551,948,984
633552,951,984
633553,948,985
633554,946,984
633555,944,986
633556,944,987
633557,946,991
633558,945,989
633559,947,987
633560,945,985
633561,944,985
633562,946,986
633563,948,984
633564,950,986
633565,949,984
633566,948,982
633567,944,981
633568,944,979
633569,945,983
633570,946,983
633571,947,983
633572,944,981
633573,944,978
633574,947,981
633575,947,981
633576,948,978
633577,947,976
633578,942,970
633579,940,970
633580,942,970
633581,943,972
633582,943,970
633583,945,971
633584,939,967
633585,937,963
633586,941,965
633587,943,968
633588,944,965
633589,943,965
633590,939,965
633591,936,962
633592,937,962
633593,938,967
633594,940,968
633595,942,967
633596,942,966
633597,940,970
633598,943,974
633599,944,979
633600,947,980
633601,947,982
633602,950,980
633603,953,984
633604,954,985
633605,957,988
633606,959,992
633607,961,993
633608,963,990
633609,962,991
633610,963,993
633611,965,994
633612,965,997
633613,965,997
633614,967,1000
633615,966,997
633616,968,995
633617,970,995
633618,969,994
633619,964,993
633620,960,991
633621,961,993
633622,963,998
633623,966,1001
633624,971,999
633625,973,998
633626,972,996
633627,968,996
633628,969,998
633629,971,999
633630,971,999
633631,972,997
633632,968,993
633633,966,993
633634,967,996
633635,964,995
633636,966,995
633637,967,993
633638,964,989
633639,960,988
633640,960,993
633641,960,994
633642,965,995
633643,963,993
633644,961,990
633645,960,989
633646,962,989
633647,963,992
633648,961,992
633649,960,993
633650,957,989
633651,957,988
633652,956,987
633653,958,989
633654,960,992
633655,961,993
633656,961,992
633657,958,990
633658,955,990
633659,960,988
633660,959,986
633661,959,988
633662,955,986
633663,952,984
633664,954,984
633665,956,987
633666,956,989
633667,958,991
633668,958,985
633669,955,985
633670,955,985
633671,956,986
633672,956,987
633673,953,985
633674,951,984
633675,949,984
633676,952,985
633677,955,985
633678,955,989
633679,957,987
633680,959,984
633681,955,985
633682,956,987
633683,957,990
633684,961,988
633685,960,987
633686,957,986
633687,955,984
633688,957,988
633689,959,990
633690,962,991
633691,966,989
633692,964,987
633693,965,987
633694,967,985
633695,971,988
633696,974,986
633697,970,989
633698,970,987
633699,970,989
633700,973,991
633701,976,995
633702,982,996
633703,982,995
633704,980,991
633705,981,992
633706,982,993
633707,981,994
633708,980,994
633709,980,995
633710,981,994
633711,976,995
633712,980,998
633713,984,1002
633714,986,1002
633715,986,1001
633716,986,998
633717,989,998
633718,991,998
633719,988,997
633720,983,998
633721,976,994
633722,971,993
633723,969,991
633724,969,994
633725,967,995
633726,968,996
633727,964,996
633728,961,994
633729,957,991
633730,956,991
633731,954,991
633732,955,991
633733,953,992
633734,955,991
633735,953,991
633736,957,990
633737,957,993
633738,957,992
633739,957,993
633740,955,989
633741,953,990
633742,954,991
633743,957,993
633744,960,994
633745,958,994
633746,959,991
633747,958,990
633748,955,994
633749,958,993
633750,958,992
633751,960,985
633752,955,982
633753,947,974
633754,940,972
633755,935,970
633756,932,972
633757,928,986
633758,921,1007
633759,918,1033
633760,934,1057
633761,959,1072
633762,990,1084
633763,1026,1103
633764,1069,1124
633765,1124,1151
633766,1181,1160
633767,1223,1134
633768,1240,1066
633769,1227,994
633770,1174,959
633771,1087,960
633772,1002,972
633773,954,982
633774,935,988
633775,937,992
633776,941,994
633777,948,992
633778,954,991
633779,956,995
633780,954,995
633781,954,992
633782,955,991
633783,954,987
633784,952,992
633785,954,996
633786,956,997
633787,956,995
633788,953,991
633789,950,991
633790,951,993
633791,951,994
633792,955,994
633793,954,996
633794,951,994
633795,951,996
633796,952,996
633797,953,1000
633798,955,998
633799,956,997
633800,955,994
633801,949,996
633802,951,999
633803,954,999
633804,956,1000
633805,954,998
633806,953,996
633807,952,997
633808,953,999
633809,955,1002
633810,956,1002
633811,956,1001
633812,953,998
633813,949,1000
633814,952,998
633815,955,1002
633816,956,1002
633817,956,1001
633818,955,999
633819,953,998
633820,954,999
633821,957,1002
633822,959,1000
633823,959,1000
633824,960,1000
633825,956,1000
633826,958,1002
633827,959,1003
633828,960,1002
633829,959,1002
633830,958,999
633831,956,998
633832,954,998
633833,955,999
633834,959,1001
633835,957,1002
633836,957,997
633837,953,996
633838,955,997
633839,957,997
633840,957,996
633841,959,994
633842,959,992
633843,956,991
633844,958,992
633845,960,991
633846,960,988
633847,959,987
633848,960,981
633849,957,983
633850,957,984
633851,958,983
633852,958,982
633853,955,978
633854,952,974
633855,951,976
633856,950,975
633857,951,977
633858,951,976
633859,951,975
633860,952,973
633861,947,973
633862,949,975
633863,952,978
633864,954,980
633865,953,984
633866,953,982
633867,954,985
633868,959,987
633869,962,994
633870,966,994
633871,967,995
633872,970,998
633873,969,999
633874,974,1003
633875,974,1006
633876,975,1008
633877,980,1006
633878,980,1007
633879,978,1005
633880,981,1008
633881,983,1013
633882,983,1012
633883,985,1012
633884,985,1012
633885,981,1010
633886,983,1010
633887,983,1011
633888,987,1009
633889,986,1012
633890,986,1009
633891,982,1011
633892,982,1013
633893,984,1013
633894,986,1014
633895,985,1010
633896,986,1006
633897,983,1008
633898,983,1010
633899,985,1010
633900,987,1013
633901,985,1012
633902,986,1009
633903,984,1007
633904,981,1009
633905,982,1010
633906,985,1011
633907,981,1011
633908,979,1009
633909,979,1007
633910,981,1008
633911,983,1009
633912,984,1006
633913,982,1006
633914,981,1006
633915,978,1006
633916,979,1006
633917,980,1008
633918,983,1005
633919,981,1004
633920,979,1003
633921,976,1002
633922,979,1006
633923,981,1005
633924,980,1004
633925,979,1005
633926,979,1001
633927,975,999
633928,975,1003
633929,976,1005
633930,977,1003
633931,975,1003
633932,976,998
633933,974,1000
633934,973,1001
633935,974,1002
633936,976,1003
633937,976,1001
633938,976,1002
633939,972,998
633940,974,999
633941,973,1004
633942,976,1003
633943,976,1002
633944,975,1001
633945,974,1001
633946,975,1002
633947,978,1003
633948,981,1001
633949,981,1001
633950,982,999
633951,984,999
633952,984,999
633953,987,1003
633954,988,1003
633955,990,1003
633956,990,1001
633957,989,1001
633958,991,1001
633959,993,1004
633960,994,1003
633961,992,1004
633962,993,1003
633963,995,1003
633964,998,1008
633965,997,1012
633966,1004,1008
633967,1004,1008
633968,1002,1008
633969,1002,1008
633970,1000,1011
633971,1000,1014
633972,999,1015
633973,1000,1015
633974,1002,1015
633975,1000,1017
633976,1001,1020
633977,1004,1020
633978,1010,1016
633979,1015,1014
633980,1009,1012
633981,1000,1009
633982,993,1009
633983,989,1011
633984,990,1012
633985,986,1009
633986,981,1007
633987,976,1005
633988,971,1006
633989,970,1007
633990,972,1008
633991,974,1005
633992,972,1005
633993,971,1004
633994,971,1006
633995,971,1006
633996,971,1004
633997,970,1006
633998,971,1001
633999,966,1001
634000,967,1004
634001,965,1006
634002,968,1008
634003,971,1005
634004,968,1004
634005,967,1002
634006,970,1005
634007,971,1007
634008,971,1004
634009,972,1002
634010,970,1000
634011,968,997
634012,965,992
634013,960,987
634014,954,982
634015,948,976
634016,943,971
634017,940,975
634018,934,995
634019,926,1027
634020,929,1055
634021,949,1080
634022,979,1097
634023,1013,1120
634024,1056,1149
634025,1112,1179
634026,1177,1190
634027,1226,1170
634028,1251,1105
634029,1242,1026
634030,1188,983
634031,1103,984
634032,1016,994
634033,953,995
634034,935,997
634035,940,1000
634036,955,999
634037,964,1002
634038,968,997
634039,964,996
634040,963,997
634041,960,993
634042,961,997
634043,961,999
634044,962,998
634045,960,999
634046,961,997
634047,960,996
634048,960,995
634049,962,1000
634050,962,999
634051,962,998
634052,961,995
634053,957,995
634054,959,997
634055,959,998
634056,963,997
634057,962,997
634058,963,997
634059,960,997
634060,960,998
634061,963,997
634062,967,998
634063,965,998
634064,964,998
634065,964,996
634066,961,999
634067,964,1000
634068,966,1000
634069,966,1000
634070,962,996
634071,961,996
634072,961,995
634073,961,999
634074,962,1000
634075,961,998
634076,962,996
634077,960,997
634078,962,996
634079,961,997
634080,963,999
634081,963,996
634082,961,992
634083,959,994
634084,961,995
634085,961,999
634086,961,999
634087,965,996
634088,962,994
634089,958,993
634090,962,995
634091,963,996
634092,965,997
634093,967,995
634094,965,994
634095,962,990
634096,964,992
634097,964,992
634098,965,991
634099,967,991
634100,965,987
634101,964,988
634102,963,988
634103,963,987
634104,965,986
634105,966,984
634106,966,981
634107,962,981
634108,961,981
634109,962,983
634110,965,980
634111,964,981
634112,962,977
634113,962,977
634114,963,980
634115,964,981
634116,966,982
634117,967,979
634118,965,977
634119,964,980
634120,965,982
634121,967,984
634122,970,986
634123,973,988
634124,970,988
634125,971,992
634126,973,994
634127,975,996
634128,978,999
634129,978,1000
634130,979,1000
634131,976,1002
634132,977,1003
634133,979,1005
634134,984,1007
634135,982,1006
634136,984,1002
634137,980,1005
634138,980,1007
634139,982,1009
634140,985,1010
634141,984,1009
634142,983,1006
634143,981,1006
634144,981,1007
634145,984,1008
634146,985,1011
634147,986,1010
634148,984,1009
634149,982,1005
634150,983,1010
634151,985,1010
634152,984,1007
634153,983,1007
634154,983,1007
634155,979,1005
634156,980,1005
634157,981,1008
634158,983,1009
634159,983,1006
634160,979,1005
634161,978,1004
634162,977,1006
634163,981,1006
634164,982,1009
634165,983,1007
634166,982,1006
634167,980,1003
634168,979,1005
634169,981,1006
634170,982,1005
634171,980,1004
634172,977,1001
634173,975,1002
634174,974,1003
634175,975,1005
634176,976,1003
634177,978,1002
634178,974,999
634179,973,1000
634180,974,1002
634181,974,1003
634182,975,1004
634183,977,1000
634184,974,1000
634185,974,1000
634186,973,1000
634187,975,1002
634188,978,1002
634189,975,1001
634190,975,999
634191,973,998
634192,973,998
634193,973,999
634194,974,1002
634195,972,1002
634196,971,1001
634197,972,998
634198,970,1003
634199,971,1004
634200,974,1003
634201,973,1001
634202,973,998
634203,971,997
634204,972,998
634205,972,1001
634206,973,1002
634207,973,1002
634208,972,999
634209,971,998
634210,973,997
634211,973,1000
634212,979,998
634213,979,1002
634214,982,1000
634215,982,1000
634216,981,1002
634217,987,1002
634218,990,1002
634219,993,1001
634220,993,1002
634221,991,1002
634222,992,1006
634223,995,1008
634224,997,1009
634225,1000,1009
634226,998,1006
634227,996,1007
634228,998,1008
634229,996,1010
634230,995,1013
634231,996,1011
634232,995,1011
634233,995,1013
634234,994,1018
634235,996,1019
634236,1000,1019
634237,1004,1016
634238,1006,1013
634239,1001,1008
634240,995,1009
634241,991,1011
634242,988,1012
634243,988,1008
634244,985,1006
634245,982,1005
634246,978,1009
634247,978,1008
634248,978,1007
634249,976,1006
634250,971,1004
634251,968,1002
634252,968,1004
634253,970,1006
634254,972,1007
634255,970,1005
634256,968,1000
634257,966,1003
634258,963,1003
634259,968,1006
634260,968,1003
634261,966,1003
634262,965,1003
634263,964,1001
634264,965,1002
634265,966,1005
634266,968,1004
634267,969,1002
634268,966,995
634269,962,988
634270,957,987
634271,951,981
634272,945,976
634273,940,980
634274,929,998
634275,920,1023
634276,926,1055
634277,947,1074
634278,979,1091
634279,1015,1116
634280,1060,1142
634281,1119,1163
634282,1182,1159
634283,1217,1109
634284,1224,1033
634285,1183,982
634286,1103,972
634287,1013,987
634288,952,994
634289,931,996
634290,937,1002
634291,948,1001
634292,960,998
634293,957,995
634294,958,995
634295,959,998
634296,962,997
634297,962,999
634298,961,998
634299,959,996
634300,959,999
634301,959,1001
634302,959,1000
634303,956,999
634304,956,997
634305,956,997
634306,955,998
634307,958,1001
634308,959,999
634309,958,999
634310,959,997
634311,959,997
634312,958,998
634313,960,1002
634314,961,1001
634315,960,1002
634316,959,1000
634317,957,998
634318,958,999
634319,958,1001
634320,959,1003
634321,959,1000
634322,959,998
634323,957,999
634324,957,1001
634325,958,1003
634326,961,1000
634327,959,1002
634328,959,999
634329,959,998
634330,959,1000
634331,961,1002
634332,964,1000
634333,962,998
634334,960,996
634335,959,995
634336,961,998
634337,961,1000
634338,962,1000
634339,960,1000
634340,960,996
634341,960,995
634342,959,997
634343,961,1000
634344,963,999
634345,965,1000
634346,963,997
634347,961,996
634348,961,995
634349,964,997
634350,965,995
634351,965,996
634352,964,992
634353,963,992
634354,960,991
634355,963,991
634356,967,991
634357,966,988
634358,964,986
634359,963,984
634360,962,985
634361,964,988
634362,966,985
634363,963,983
634364,961,982
634365,961,979
634366,959,980
634367,960,979
634368,963,979
634369,961,981
634370,962,978
634371,964,978
634372,960,979
634373,960,980
634374,962,982
634375,962,984
634376,960,983
634377,959,985
634378,961,989
634379,962,994
634380,968,995
634381,969,996
634382,968,995
634383,969,996
634384,969,999
634385,974,1004
634386,977,1008
634387,979,1007
634388,980,1004
634389,978,1006
634390,980,1006
634391,982,1008
634392,980,1009
634393,980,1009
634394,981,1008
634395,979,1008
634396,978,1008
634397,979,1011
634398,981,1011
634399,981,1007
634400,978,1007
634401,975,1005
634402,976,1006
634403,978,1009
634404,981,1010
634405,980,1011
634406,977,1009
634407,976,1008
634408,977,1010
634409,980,1008
634410,982,1010
634411,980,1009
634412,978,1008
634413,975,1007
634414,973,1006
634415,976,1010
634416,980,1009
634417,980,1006
634418,977,1009
634419,976,1005
634420,976,1007
634421,976,1007
634422,976,1009
634423,974,1005
634424,972,1004
634425,972,1004
634426,972,1004
634427,973,1006
634428,978,1007
634429,977,1005
634430,974,1001
634431,972,1001
634432,972,1003
634433,971,1004
634434,973,1006
634435,973,1003
634436,971,1002
634437,968,1002
634438,967,1000
634439,970,1003
634440,973,1003
634441,972,1002
634442,970,998
634443,966,997
634444,965,1001
634445,965,1003
634446,969,1001
634447,967,1000
634448,966,1000
634449,965,997
634450,965,996
634451,965,1000
634452,969,1000
634453,967,1000
634454,965,997
634455,967,997
634456,967,995
634457,967,997
634458,966,997
634459,967,999
634460,966,997
634461,964,999
634462,964,1002
634463,966,1003
634464,969,1001
634465,970,1002
634466,968,999
634467,967,997
634468,965,1001
634469,969,1001
634470,972,1000
634471,971,1000
634472,975,997
634473,971,997
634474,972,1000
634475,978,1002
634476,981,1002
634477,982,1003
634478,983,999
634479,982,999
634480,983,1003
634481,986,1004
634482,990,1008
634483,991,1009
634484,990,1009
634485,990,1008
634486,992,1008
634487,993,1007
634488,993,1008
634489,990,1009
634490,987,1009
634491,986,1011
634492,987,1013
634493,990,1019
634494,992,1019
634495,990,1017
634496,992,1016
634497,993,1013
634498,997,1010
634499,999,1011
634500,995,1012
634501,987,1010
634502,980,1008
634503,976,1003
634504,975,1007
634505,975,1005
634506,972,1005
634507,972,1004
634508,965,1001
634509,962,1002
634510,960,1002
634511,960,1003
634512,962,1003
634513,960,1003
634514,960,1003
634515,959,1002
634516,960,1003
634517,963,1004
634518,964,1002
634519,961,1002
634520,959,999
634521,955,999
634522,955,1003
634523,957,1004
634524,956,1002
634525,955,1000
634526,955,1000
634527,953,998
634528,954,994
634529,956,990
634530,950,986
634531,941,980
634532,936,974
634533,929,977
634534,921,992
634535,915,1014
634536,918,1036
634537,932,1053
634538,954,1066
634539,981,1084
634540,1015,1106
634541,1066,1135
634542,1124,1160
634543,1181,1176
634544,1225,1170
634545,1248,1141
634546,1246,1098
634547,1220,1045
634548,1174,996
634549,1116,960
634550,1054,943
634551,1005,950
634552,966,965
634553,939,981
634554,924,988
634555,922,992
634556,931,991
634557,943,991
634558,948,992
634559,948,996
634560,946,995
634561,947,995
634562,947,992
634563,947,993
634564,946,996
634565,946,997
634566,948,995
634567,946,995
634568,946,993
634569,946,991
634570,944,994
634571,945,996
634572,947,999
634573,946,997
634574,947,995
634575,942,994
634576,941,996
634577,941,996
634578,945,997
634579,946,998
634580,948,996
634581,945,994
634582,943,995
634583,943,998
634584,947,1000
634585,947,997
634586,946,992
634587,944,993
634588,943,994
634589,945,997
634590,946,996
634591,945,998
634592,943,993
634593,942,993
634594,940,997
634595,941,1001
634596,945,998
634597,945,996
634598,945,994
634599,942,992
634600,939,993
634601,943,996
634602,946,993
634603,944,994
634604,944,996
634605,942,997
634606,939,995
634607,944,995
634608,944,994
634609,944,994
634610,941,991
634611,939,992
634612,942,995
634613,942,997
634614,944,996
634615,945,998
634616,945,992
634617,946,991
634618,946,989
634619,948,990
634620,949,991
634621,948,990
634622,944,988
634623,943,985
634624,943,986
634625,942,987
634626,942,985
634627,939,983
634628,938,981
634629,937,978
634630,938,979
634631,942,982
634632,944,978
634633,941,979
634634,937,972
634635,935,972
634636,936,973
634637,937,975
634638,939,975
634639,940,976
634640,938,976
634641,938,974
634642,938,974
634643,939,978
634644,941,979
634645,938,979
634646,938,980
634647,937,983
634648,941,986
634649,945,992
634650,949,994
634651,951,996
634652,952,997
634653,953,996
634654,957,998
634655,961,1003
634656,965,1006
634657,962,1008
634658,967,1004
634659,965,1004
634660,963,1004
634661,963,1004
634662,966,1004
634663,964,1004
634664,963,1005
634665,962,1006
634666,964,1007
634667,966,1006
634668,970,1005
634669,968,1005
634670,964,1002
634671,962,1000
634672,962,1001
634673,964,1006
634674,968,1006
634675,966,1008
634676,966,1006
634677,963,1005
634678,963,1006
634679,968,1009
634680,970,1009
634681,969,1008
634682,967,1003
634683,966,1001
634684,962,1001
634685,963,1001
634686,960,1002
634687,960,1004
634688,959,1002
634689,960,1001
634690,961,1002
634691,962,1003
634692,967,1004
634693,965,1003
634694,963,999
634695,961,1000
634696,959,1001
634697,962,1002
634698,965,1003
634699,963,1003
634700,962,1001
634701,960,998
634702,959,998
634703,959,1000
634704,960,999
634705,959,999
634706,957,995
634707,953,996
634708,956,996
634709,958,999
634710,961,999
634711,955,999
634712,956,996
634713,954,994
634714,954,995
634715,954,997
634716,955,996
634717,954,997
634718,953,994
634719,950,992
634720,951,994
634721,956,995
634722,954,995
634723,954,996
634724,950,992
634725,952,993
634726,950,993
634727,955,999
634728,956,997
634729,955,995
634730,953,993
634731,953,993
634732,951,994
634733,954,995
634734,955,994
634735,956,996
634736,953,995
634737,952,994
634738,951,994
634739,953,995
634740,956,996
634741,955,995
634742,953,994
634743,952,995
634744,954,994
634745,955,996
634746,958,995
634747,960,996
634748,958,992
634749,959,991
634750,960,993
634751,964,998
634752,967,998
634753,970,997
634754,970,995
634755,971,995
634756,973,996
634757,975,999
634758,978,1001
634759,976,1001
634760,978,1002
634761,977,1001
634762,979,1002
634763,980,1006
634764,983,1005
634765,980,1003
634766,979,1000
634767,979,999
634768,977,1000
634769,977,1005
634770,977,1009
634771,978,1008
634772,977,1006
634773,977,1006
634774,979,1010
634775,979,1014
634776,982,1012
634777,983,1011
634778,986,1008
634779,984,1006
634780,975,1006
634781,972,1007
634782,969,1005
634783,966,1004
634784,965,1004
634785,959,1000
634786,956,1002
634787,954,1005
634788,955,1001
634789,955,1004
634790,955,1000
634791,953,999
634792,953,1001
634793,953,1005
634794,955,1002
634795,951,1003
634796,950,1000
634797,948,1000
634798,949,1001
634799,949,1003
634800,953,1004
634801,952,1003
634802,948,1004
634803,947,1003
634804,946,1003
634805,950,1003
634806,953,1002
634807,951,997
634808,948,992
634809,943,988
634810,934,982
634811,929,977
634812,927,974
634813,922,972
634814,911,976
634815,902,985
634816,899,1002
634817,908,1026
634818,923,1049
634819,939,1067
634820,962,1076
634821,984,1089
634822,1015,1111
634823,1060,1136
634824,1120,1159
634825,1177,1162
634826,1215,1129
634827,1226,1058
634828,1202,994
634829,1143,971
634830,1059,976
634831,981,988
634832,934,990
634833,919,995
634834,923,1000
634835,934,1002
634836,941,1002
634837,944,1000
634838,943,999
634839,941,998
634840,941,998
634841,945,1004
634842,948,1003
634843,948,1005
634844,947,1003
634845,947,1001
634846,945,1002
634847,947,1000
634848,948,1001
634849,948,1002
634850,946,1002
634851,944,1000
634852,944,1001
634853,946,1004
634854,946,1003
634855,944,1003
634856,945,1001
634857,945,998
634858,944,1003
634859,945,1006
634860,948,1005
634861,946,1005
634862,945,1002
634863,943,1002
634864,943,1003
634865,943,1004
634866,945,1006
634867,946,1005
634868,945,1003
634869,942,1000
634870,943,1004
634871,944,1006
634872,947,1004
634873,947,1005
634874,946,1003
634875,947,1002
634876,946,1002
634877,947,1006
634878,947,1005
634879,947,1005
634880,947,1003
634881,947,1002
634882,945,1002
634883,946,1003
634884,947,1004
634885,948,1004
634886,944,1004
634887,944,1002
634888,946,1002
634889,947,1003
634890,948,1003
634891,949,1000
634892,947,999
634893,947,998
634894,946,998
634895,948,999
634896,949,1001
634897,950,999
634898,948,993
634899,947,993
634900,944,994
634901,947,996
634902,951,994
634903,949,994
634904,949,989
634905,948,988
634906,947,987
634907,951,988
634908,951,989
634909,950,986
634910,947,983
634911,946,983
634912,944,982
634913,945,985
634914,946,983
634915,947,980
634916,945,977
634917,942,978
634918,941,979
634919,943,985
634920,946,985
634921,944,985
634922,945,984
634923,942,983
634924,943,984
634925,944,985
634926,946,987
634927,946,987
634928,945,987
634929,945,988
634930,942,990
634931,947,997
634932,952,999
634933,954,1000
634934,953,1002
634935,954,1001
634936,957,1004
634937,961,1007
634938,966,1012
634939,968,1012
634940,968,1012
634941,966,1014
634942,965,1018
634943,970,1019
634944,973,1019
634945,970,1020
634946,971,1016
634947,971,1016
634948,970,1017
634949,969,1019
634950,972,1018
634951,972,1020
634952,972,1016
634953,970,1014
634954,970,1017
634955,974,1018
634956,974,1020
634957,973,1020
634958,972,1016
634959,972,1016
634960,970,1016
634961,974,1018
634962,975,1020
634963,976,1017
634964,973,1015
634965,973,1015
634966,974,1016
634967,975,1018
634968,975,1019
634969,974,1019
634970,972,1015
634971,972,1014
634972,973,1016
634973,972,1016
634974,974,1017
634975,973,1017
634976,971,1015
634977,969,1013
634978,970,1014
634979,967,1015
634980,973,1014
634981,971,1014
634982,971,1014
634983,967,1011
634984,966,1012
634985,968,1017
634986,971,1012
634987,970,1015
634988,969,1011
634989,966,1009
634990,966,1011
634991,965,1012
634992,967,1012
634993,967,1013
634994,966,1008
634995,965,1009
634996,965,1008
634997,966,1009
634998,966,1009
634999,966,1010
635000,964,1009
635001,962,1009
635002,961,1008
635003,964,1010
635004,966,1009
635005,964,1007
635006,962,1007
635007,961,1007
635008,959,1008
635009,962,1010
635010,963,1011
635011,964,1007
635012,965,1006
635013,959,1005
635014,960,1007
635015,962,1010
635016,965,1012
635017,964,1013
635018,965,1008
635019,965,1006
635020,964,1006
635021,967,1008
635022,971,1008
635023,972,1008
635024,973,1008
635025,972,1008
635026,973,1010
635027,977,1010
635028,979,1009
635029,980,1009
635030,978,1009
635031,977,1008
635032,977,1011
635033,980,1012
635034,984,1015
635035,986,1016
635036,986,1014
635037,985,1014
635038,987,1017
635039,988,1017
635040,989,1017
635041,988,1020
635042,990,1017
635043,990,1015
635044,989,1015
635045,990,1017
635046,990,1020
635047,988,1020
635048,984,1017
635049,984,1020
635050,985,1022
635051,989,1024
635052,992,1026
635053,991,1026
635054,993,1023
635055,996,1022
635056,998,1018
635057,997,1019
635058,989,1018
635059,984,1018
635060,980,1015
635061,977,1013
635062,971,1014
635063,970,1015
635064,970,1016
635065,967,1015
635066,964,1012
635067,960,1010
635068,959,1010
635069,960,1013
635070,963,1014
635071,964,1012
635072,961,1011
635073,961,1010
635074,958,1010
635075,960,1011
635076,962,1011
635077,960,1012
635078,959,1009
635079,957,1007
635080,958,1008
635081,958,1013
635082,962,1010
635083,960,1012
635084,959,1011
635085,960,1009
635086,958,1008
635087,961,1008
635088,962,1003
635089,959,996
635090,954,989
635091,944,982
635092,935,976
635093,931,976
635094,929,979
635095,920,993
635096,910,1014
635097,910,1040
635098,921,1068
635099,948,1090
635100,974,1109
635101,1001,1128
635102,1030,1149
635103,1067,1171
635104,1120,1198
635105,1178,1216
635106,1222,1200
635107,1245,1144
635108,1246,1067
635109,1210,1009
635110,1136,992
635111,1044,999
635112,972,1004
635113,937,1005
635114,933,1004
635115,940,1005
635116,949,1002
635117,955,1005
635118,956,1002
635119,955,1004
635120,954,1001
635121,952,1001
635122,952,1001
635123,952,1003
635124,951,1006
635125,952,1002
635126,948,998
635127,947,998
635128,949,1000
635129,949,1003
635130,951,1004
635131,952,1001
635132,951,1002
635133,948,1001
635134,947,999
635135,952,1002
635136,952,1002
635137,950,1005
635138,950,1004
635139,951,1002
635140,949,1001
635141,950,1003
635142,953,1005
635143,955,1003
635144,953,1001
635145,951,1000
635146,952,1002
635147,953,1008
635148,954,1009
635149,954,1008
635150,955,1003
635151,954,1003
635152,951,1003
635153,953,1006
635154,955,1005
635155,953,1002
635156,952,1000
635157,951,1000
635158,950,1003
635159,951,1004
635160,955,1004
635161,956,1004
635162,950,1002
635163,951,1000
635164,948,1002
635165,948,1002
635166,953,1003
635167,953,1005
635168,952,1001
635169,950,998
635170,948,998
635171,950,1001
635172,955,1000
635173,956,998
635174,954,997
635175,952,995
635176,954,997
635177,956,997
635178,958,998
635179,956,996
635180,955,994
635181,954,993
635182,953,994
635183,956,996
635184,958,994
635185,957,994
635186,956,988
635187,955,987
635188,952,988
635189,956,989
635190,956,988
635191,956,989
635192,956,985
635193,954,984
635194,952,982
635195,955,986
635196,956,986
635197,954,987
635198,955,984
635199,955,981
635200,954,984
635201,956,986
635202,959,989
635203,959,988
635204,959,987
635205,959,987
635206,960,992
635207,962,995
635208,966,998
635209,966,999
635210,966,1001
635211,966,1000
635212,966,1002
635213,969,1006
635214,971,1007
635215,971,1009
635216,971,1010
635217,969,1009
635218,970,1012
635219,972,1016
635220,975,1017
635221,974,1016
635222,976,1016
635223,973,1015
635224,975,1017
635225,976,1018
635226,976,1020
635227,978,1019
635228,977,1018
635229,974,1018
635230,974,1017
635231,976,1018
635232,977,1018
635233,977,1018
635234,977,1015
635235,976,1015
635236,977,1016
635237,976,1020
635238,977,1020
635239,978,1018
635240,976,1016
635241,973,1013
635242,972,1014
635243,974,1015
635244,975,1015
635245,975,1016
635246,973,1014
635247,972,1012
635248,970,1012
635249,972,1016
635250,972,1017
635251,971,1015
635252,971,1012
635253,968,1010
635254,969,1012
635255,971,1013
635256,974,1014
635257,972,1012
635258,971,1010
635259,971,1010
635260,969,1011
635261,969,1014
635262,970,1015
635263,971,1014
635264,971,1011
635265,968,1009
635266,968,1009
635267,970,1010
635268,971,1009
635269,970,1011
635270,968,1007
635271,966,1005
635272,963,1007
635273,960,1008
635274,963,1008
635275,966,1006
635276,961,1005
635277,960,1002
635278,960,1006
635279,961,1008
635280,962,1006
635281,964,1008
635282,962,1003
635283,960,1004
635284,959,1004
635285,959,1006
635286,961,1006
635287,960,1007
635288,959,1003
635289,958,1001
635290,956,1004
635291,956,1004
635292,961,1005
635293,957,1006
635294,958,1003
635295,958,1004
635296,957,1002
635297,957,1006
635298,961,1005
635299,961,1004
635300,960,1002
635301,959,1003
635302,956,1005
635303,960,1007
635304,961,1010
635305,962,1009
635306,960,1006
635307,960,1006
635308,961,1004
635309,962,1006
635310,966,1008
635311,967,1006
635312,968,1006
635313,968,1004
635314,967,1006
635315,971,1007
635316,973,1010
635317,977,1009
635318,975,1005
635319,975,1004
635320,977,1005
635321,977,1009
635322,980,1012
635323,980,1011
635324,981,1013
635325,978,1009
635326,983,1011
635327,982,1014
635328,989,1014
635329,988,1015
635330,989,1014
635331,987,1014
635332,982,1015
635333,982,1019
635334,984,1021
635335,984,1022
635336,983,1022
635337,983,1021
635338,982,1023
635339,986,1023
635340,992,1022
635341,994,1018
635342,992,1017
635343,984,1013
635344,977,1014
635345,975,1012
635346,975,1014
635347,973,1014
635348,968,1012
635349,965,1010
635350,958,1011
635351,959,1011
635352,958,1010
635353,958,1011
635354,957,1008
635355,958,1008
635356,956,1008
635357,957,1012
635358,959,1012
635359,955,1011
635360,957,1008
635361,955,1007
635362,954,1006
635363,954,1009
635364,956,1010
635365,955,1012
635366,954,1009
635367,952,1007
635368,951,1009
635369,954,1012
635370,956,1011
635371,956,1009
635372,955,1009
635373,953,1008
635374,953,1008
635375,953,1008
635376,957,1004
635377,956,1000
635378,952,991
635379,944,987
635380,938,983
635381,932,981
635382,928,982
635383,925,993
635384,916,1013
635385,910,1037
635386,917,1063
635387,938,1086
635388,966,1107
635389,997,1129
635390,1033,1151
635391,1080,1173
635392,1138,1192
635393,1189,1186
635394,1218,1139
635395,1222,1068
635396,1198,1009
635397,1131,989
635398,1042,997
635399,971,1003
635400,935,1005
635401,924,1006
635402,931,1004
635403,939,1001
635404,945,1002
635405,947,1001
635406,948,1003
635407,948,1003
635408,947,1004
635409,946,1001
635410,947,1003
635411,947,1003
635412,945,1006
635413,945,1004
635414,944,1002
635415,944,998
635416,944,999
635417,944,1000
635418,944,1003
635419,942,1003
635420,940,999
635421,940,998
635422,939,1000
635423,943,1003
635424,943,1003
635425,943,1002
635426,940,1002
635427,937,1004
635428,937,1004
635429,940,1004
635430,942,1004
635431,945,1004
635432,944,1001
635433,945,1001
635434,943,1004
635435,945,1005
635436,944,1006
635437,944,1005
635438,945,1003
635439,941,1002
635440,941,1003
635441,942,1006
635442,944,1009
635443,943,1006
635444,941,1004
635445,942,1003
635446,942,1001
635447,944,1004
635448,942,1004
635449,942,1003
635450,940,1004
635451,941,1002
635452,940,1003
635453,940,1004
635454,943,1003
635455,942,1003
635456,940,1001
635457,940,998
635458,942,1000
635459,942,1004
635460,944,1003
635461,946,1002
635462,944,998
635463,943,995
635464,940,995
635465,943,998
635466,945,998
635467,946,996
635468,946,996
635469,945,995
635470,942,996
635471,946,997
635472,948,997
635473,946,997
635474,945,991
635475,942,991
635476,942,991
635477,943,993
635478,944,993
635479,944,993
635480,944,990
635481,940,987
635482,939,985
635483,943,986
635484,945,988
635485,944,988
635486,943,985
635487,941,984
635488,938,985
635489,943,988
635490,944,989
635491,944,989
635492,946,990
635493,946,989
635494,945,995
635495,948,996
635496,951,997
635497,953,999
635498,952,998
635499,952,1001
635500,951,1003
635501,953,1006
635502,958,1007
635503,958,1008
635504,959,1008
635505,955,1008
635506,955,1011
635507,959,1014
635508,961,1015
635509,963,1018
635510,962,1016
635511,960,1012
635512,960,1016
635513,963,1016
635514,964,1017
635515,965,1016
635516,960,1014
635517,961,1013
635518,961,1013
635519,962,1015
635520,964,1016
635521,963,1017
635522,962,1013
635523,960,1011
635524,962,1013
635525,964,1014
635526,965,1015
635527,965,1017
635528,965,1014
635529,962,1012
635530,958,1014
635531,961,1014
635532,961,1015
635533,960,1015
635534,957,1013
635535,955,1011
635536,953,1011
635537,956,1011
635538,957,1011
635539,959,1010
635540,957,1007
635541,953,1009
635542,953,1011
635543,955,1012
635544,957,1013
635545,958,1008
635546,956,1007
635547,956,1002
635548,956,1001
635549,956,1003
635550,955,1006
635551,954,1004
635552,953,1006
635553,951,1005
635554,952,1007
635555,952,1009
635556,954,1007
635557,952,1004
635558,951,1004
635559,948,1000
635560,948,1003
635561,951,1004
635562,951,1005
635563,947,1004
635564,947,1000
635565,946,1000
635566,947,999
635567,945,999
635568,947,1002
635569,944,1001
635570,944,1002
635571,944,1002
635572,942,999
635573,944,998
635574,947,1003
635575,947,1002
635576,944,999
635577,943,998
635578,944,998
635579,948,1000
635580,950,1003
635581,949,1001
635582,950,999
635583,948,996
635584,946,998
635585,946,1001
635586,950,1001
635587,948,1004
635588,945,1002
635589,943,997
635590,943,1000
635591,945,1000
635592,947,1002
635593,949,1002
635594,947,1002
635595,948,999
635596,945,1001
635597,950,1004
635598,951,1005
635599,949,1002
635600,950,1000
635601,949,998
635602,949,1001
635603,949,1002
635604,953,1001
635605,958,1000
635606,955,999
635607,953,997
635608,954,998
635609,960,1002
635610,962,1003
635611,960,1001
635612,961,1000
635613,962,999
635614,962,1000
635615,966,1004
635616,967,1007
635617,968,1009
635618,970,1009
635619,966,1007
635620,966,1011
635621,970,1009
635622,972,1010
635623,975,1007
635624,972,1006
635625,968,1007
635626,968,1010
635627,971,1014
635628,972,1014
635629,974,1017
635630,971,1016
635631,973,1015
635632,976,1014
635633,977,1012
635634,980,1011
635635,976,1011
635636,971,1008
635637,964,1004
635638,958,1005
635639,956,1007
635640,953,1010
635641,949,1006
635642,947,1002
635643,944,996
635644,941,998
635645,943,1001
635646,943,1002
635647,944,1002
635648,943,1002
635649,938,998
635650,937,1000
635651,940,1002
635652,942,1004
635653,944,1001
635654,941,1003
635655,940,1002
635656,937,1003
635657,940,1005
635658,941,1001
635659,942,1001
635660,940,1001
635661,939,995
635662,936,998
635663,937,1002
635664,938,1001
635665,939,998
635666,936,994
635667,934,990
635668,930,986
635669,927,986
635670,922,982
635671,916,975
635672,913,974
635673,908,979
635674,897,998
635675,895,1022
635676,901,1042
635677,922,1055
635678,943,1064
635679,971,1077
635680,1002,1102
635681,1051,1127
635682,1107,1150
635683,1159,1147
635684,1194,1104
635685,1209,1037
635686,1185,978
635687,1125,958
635688,1043,964
635689,972,975
635690,926,984
635691,905,986
635692,903,988
635693,913,992
635694,924,992
635695,929,992
635696,929,988
635697,924,986
635698,922,989
635699,924,991
635700,927,992
635701,928,990
635702,927,987
635703,923,985
635704,920,988
635705,920,990
635706,921,993
635707,924,991
635708,926,990
635709,926,989
635710,923,991
635711,923,994
635712,926,994
635713,925,992
635714,928,994
635715,925,993
635716,925,994
635717,929,996
635718,933,994
635719,932,995
635720,931,992
635721,929,993
635722,928,992
635723,928,994
635724,929,992
635725,928,996
635726,925,994
635727,922,992
635728,922,990
635729,927,995
635730,922,993
635731,923,995
635732,921,993
635733,923,993
635734,924,990
635735,926,990
635736,928,991
635737,926,992
635738,926,989
635739,922,990
635740,925,991
635741,927,993
635742,927,995
635743,929,994
635744,928,992
635745,926,990
635746,927,990
635747,927,992
635748,929,993
635749,926,993
635750,924,988
635751,925,986
635752,924,986
635753,927,989
635754,926,990
635755,926,990
635756,927,987
635757,925,981
635758,924,984
635759,924,986
635760,927,987
635761,929,985
635762,930,983
635763,929,977
635764,925,978
635765,926,977
635766,922,979
635767,923,976
635768,923,973
635769,921,970
635770,918,971
635771,921,971
635772,921,971
635773,919,970
635774,920,967
635775,918,965
635776,917,966
635777,918,967
635778,919,971
635779,921,971
635780,918,972
635781,919,969
635782,920,971
635783,923,976
635784,926,981
635785,929,981
635786,931,978
635787,933,979
635788,931,986
635789,934,987
635790,935,989
635791,938,992
635792,940,992
635793,937,990
635794,939,991
635795,942,996
635796,947,999
635797,948,1002
635798,947,1001
635799,947,1001
635800,947,1001
635801,950,1002
635802,952,1007
635803,955,1005
635804,955,1005
635805,952,1001
635806,949,1003
635807,952,1005
635808,954,1006
635809,954,1005
635810,953,1005
635811,953,1002
635812,955,1004
635813,955,1006
635814,956,1006
635815,958,1008
635816,956,1006
635817,957,1003
635818,954,1002
635819,954,1004
635820,955,1007
635821,955,1006
635822,956,1004
635823,953,1002
635824,951,1003
635825,953,1005
635826,955,1007
635827,954,1006
635828,951,1003
635829,951,1002
635830,949,1003
635831,950,1001
635832,952,1002
635833,948,1000
635834,950,1000
635835,950,999
635836,948,998
635837,950,1001
635838,950,1000
635839,951,999
635840,949,996
635841,946,994
635842,945,995
635843,945,998
635844,950,999
635845,950,998
635846,949,993
635847,944,994
635848,943,995
635849,945,996
635850,946,999
635851,947,997
635852,947,999
635853,946,994
635854,946,994
635855,945,997
635856,949,998
635857,950,996
635858,943,997
635859,944,994
635860,943,994
635861,943,996
635862,948,997
635863,948,999
635864,947,996
635865,945,994
635866,943,996
635867,945,995
635868,948,999
635869,952,998
635870,950,996
635871,949,995
635872,947,995
635873,949,998
635874,951,1000
635875,952,997
635876,951,997
635877,949,995
635878,950,997
635879,950,999
635880,952,998
635881,949,999
635882,950,998
635883,949,996
635884,949,996
635885,950,999
635886,951,1001
635887,952,998
635888,953,996
635889,951,995
635890,950,995
635891,955,999
635892,958,997
635893,960,999
635894,961,997
635895,961,993
635896,962,996
635897,967,997
635898,971,999
635899,971,1000
635900,969,1000
635901,972,1000
635902,973,1001
635903,974,1006
635904,978,1006
635905,976,1006
635906,979,1003
635907,977,1002
635908,976,1004
635909,977,1005
635910,975,1007
635911,975,1009
635912,976,1008
635913,975,1009
635914,974,1011
635915,977,1016
635916,981,1013
635917,983,1007
635918,986,1005
635919,979,1001
635920,971,1002
635921,966,1003
635922,967,1003
635923,964,1004
635924,963,1002
635925,959,999
635926,956,999
635927,956,1000
635928,956,998
635929,957,998
635930,954,997
635931,952,994
635932,950,995
635933,952,997
635934,952,1000
635935,953,999
635936,952,995
635937,947,994
635938,946,994
635939,946,997
635940,948,998
635941,949,996
635942,946,995
635943,948,995
635944,945,994
635945,945,997
635946,948,996
635947,947,996
635948,947,994
635949,944,992
635950,943,989
635951,945,984
635952,941,979
635953,937,973
635954,927,967
635955,920,968
635956,914,984
635957,910,1012
635958,912,1043
635959,928,1068
635960,959,1085
635961,994,1103
635962,1033,1128
635963,1089,1153
635964,1150,1173
635965,1200,1156
635966,1228,1094
635967,1225,1016
635968,1179,969
635969,1096,963
635970,1008,976
635971,945,983
635972,920,984
635973,919,982
635974,928,985
635975,941,986
635976,944,987
635977,942,986
635978,943,986
635979,940,986
635980,941,984
635981,942,986
635982,941,985
635983,941,984
635984,942,984
635985,939,985
635986,941,984
635987,938,984
635988,940,989
635989,943,986
635990,942,986
635991,939,982
635992,938,985
635993,939,984
635994,941,985
635995,942,987
635996,944,987
635997,941,986
635998,939,988
635999,941,990
636000,943,989
636001,941,988
636002,939,987
636003,939,986
636004,936,986
636005,938,990
636006,939,991
636007,945,991
636008,942,989
636009,942,987
636010,941,986
636011,944,990
636012,943,992
636013,948,992
636014,946,991
636015,944,988
636016,943,985
636017,942,987
636018,943,990
636019,943,988
636020,943,991
636021,943,988
636022,940,989
636023,944,987
636024,944,989
636025,945,986
636026,946,986
636027,944,985
636028,942,987
636029,944,989
636030,945,990
636031,945,988
636032,947,983
636033,945,981
636034,945,982
636035,946,984
636036,947,985
636037,950,983
636038,950,980
636039,946,980
636040,946,975
636041,947,978
636042,948,978
636043,949,979
636044,948,975
636045,946,972
636046,943,972
636047,943,970
636048,945,971
636049,946,970
636050,944,968
636051,944,968
636052,941,968
636053,943,969
636054,947,972
636055,945,969
636056,947,968
636057,947,969
636058,946,971
636059,950,975
636060,950,977
636061,951,980
636062,952,982
636063,952,982
636064,954,983
636065,958,986
636066,961,989
636067,964,994
636068,964,993
636069,966,994
636070,964,997
636071,967,998
636072,968,1002
636073,971,999
636074,970,1001
636075,970,1002
636076,971,1002
636077,973,1007
636078,973,1007
636079,974,1008
636080,974,1005
636081,974,1004
636082,971,1004
636083,973,1003
636084,974,1007
636085,974,1005
636086,973,1006
636087,972,1005
636088,971,1004
636089,972,1007
636090,972,1008
636091,973,1006
636092,972,1006
636093,973,1003
636094,969,1003
636095,973,1004
636096,975,1006
636097,974,1005
636098,975,1001
636099,972,1002
636100,971,1004
636101,972,1004
636102,971,1003
636103,972,1004
636104,971,1001
636105,970,997
636106,968,998
636107,971,1001
636108,969,1002
636109,971,1002
636110,970,1001
636111,969,997
636112,965,997
636113,968,998
636114,970,1001
636115,971,997
636116,968,998
636117,966,997
636118,963,996
636119,965,998
636120,967,998
636121,966,995
636122,965,996
636123,962,993
636124,963,994
636125,965,996
636126,966,997
636127,968,995
636128,964,990
636129,963,989
636130,959,988
636131,961,993
636132,960,995
636133,961,994
636134,962,991
636135,961,988
636136,960,989
636137,959,989
636138,962,992
636139,965,993
636140,964,992
636141,960,992
636142,961,992
636143,963,991
636144,965,993
636145,965,991
636146,964,989
636147,963,991
636148,963,989
636149,962,990
636150,965,995
636151,964,992
636152,965,992
636153,964,990
636154,962,990
636155,963,992
636156,966,993
636157,966,993
636158,966,990
636159,965,989
636160,965,988
636161,971,992
636162,971,994
636163,974,992
636164,973,989
636165,974,988
636166,974,991
636167,980,991
636168,981,995
636169,984,997
636170,984,994
636171,985,993
636172,987,995
636173,988,998
636174,990,1003
636175,990,1002
636176,991,1002
636177,989,999
636178,986,997
636179,986,1003
636180,986,1005
636181,987,1005
636182,990,1005
636183,987,1006
636184,985,1008
636185,990,1010
636186,994,1009
636187,998,1003
636188,999,1001
636189,991,997
636190,981,1000
636191,978,1000
636192,978,1002
636193,975,1000
636194,973,996
636195,970,996
636196,965,995
636197,965,996
636198,964,996
636199,965,997
636200,964,995
636201,965,994
636202,961,991
636203,962,993
636204,962,995
636205,962,994
636206,961,993
636207,959,994
636208,956,991
636209,958,991
636210,958,996
636211,959,993
636212,960,991
636213,958,991
636214,955,990
636215,957,990
636216,959,991
636217,958,984
636218,956,977
636219,952,971
636220,943,964
636221,935,963
636222,933,959
636223,931,955
636224,927,956
636225,915,962
636226,906,975
636227,909,995
636228,921,1017
636229,932,1039
636230,951,1056
636231,968,1072
636232,989,1088
636233,1010,1111
636234,1039,1135
636235,1082,1155
636236,1136,1176
636237,1185,1184
636238,1219,1161
636239,1240,1094
636240,1236,1021
636241,1190,975
636242,1097,976
636243,1005,982
636244,944,985
636245,931,989
636246,937,989
636247,950,988
636248,955,986
636249,954,984
636250,951,984
636251,951,985
636252,953,985
636253,954,986
636254,954,983
636255,951,984
636256,952,980
636257,952,983
636258,952,986
636259,953,985
636260,954,982
636261,952,981
636262,952,980
636263,951,982
636264,953,985
636265,951,984
636266,952,985
636267,949,980
636268,949,981
636269,949,983
636270,952,984
636271,952,982
636272,952,985
636273,951,982
636274,951,981
636275,950,983
636276,951,984
636277,954,982
636278,955,981
636279,949,982
636280,948,982
636281,951,984
636282,954,985
636283,953,984
636284,952,983
636285,955,982
636286,953,981
636287,954,983
636288,958,986
636289,959,984
636290,958,981
636291,954,978
636292,954,979
636293,954,981
636294,954,981
636295,956,982
636296,954,982
636297,953,979
636298,953,978
636299,954,978
636300,957,980
636301,958,979
636302,957,975
636303,956,973
636304,956,973
636305,955,977
636306,957,980
636307,957,978
636308,958,975
636309,956,974
636310,953,972
636311,955,974
636312,955,976
636313,958,975
636314,957,969
636315,955,968
636316,956,967
636317,956,968
636318,958,972
636319,961,968
636320,960,964
636321,958,965
636322,955,964
636323,958,965
636324,957,969
636325,961,966
636326,960,964
636327,958,962
636328,957,962
636329,958,964
636330,961,968
636331,962,968
636332,959,968
636333,959,968
636334,959,970
636335,962,970
636336,963,977
636337,965,976
636338,966,979
636339,965,981
636340,966,983
636341,969,986
636342,972,990
636343,973,990
636344,974,988
636345,975,989
636346,974,990
636347,976,995
636348,978,1000
636349,980,999
636350,978,997
636351,977,995
636352,976,995
636353,978,996
636354,976,996
636355,978,998
636356,975,999
636357,977,997
636358,976,995
636359,978,997
636360,980,1000
636361,979,998
636362,981,996
636363,980,996
636364,978,995
636365,979,998
636366,980,998
636367,982,998
636368,977,995
636369,980,995
636370,976,994
636371,978,997
636372,978,1000
636373,978,996
636374,977,998
636375,976,994
636376,973,996
636377,975,994
636378,975,995
636379,976,995
636380,975,993
636381,972,993
636382,974,989
636383,973,996
636384,974,996
636385,974,995
636386,972,993
636387,972,992
636388,972,989
636389,972,992
636390,974,996
636391,973,992
636392,974,991
636393,971,990
636394,968,989
636395,969,990
636396,970,991
636397,969,991
636398,970,990
636399,967,989
636400,964,987
636401,967,990
636402,969,990
636403,971,987
636404,969,988
636405,969,986
636406,964,985
636407,965,988
636408,966,991
636409,968,992
636410,968,990
636411,966,988
636412,962,987
636413,964,987
636414,966,990
636415,965,990
636416,962,990
636417,964,988
636418,961,987
636419,963,990
636420,964,992
636421,965,989
636422,964,990
636423,963,986
636424,962,988
636425,962,992
636426,965,992
636427,967,992
636428,966,992
636429,966,990
636430,965,990
636431,965,993
636432,967,992
636433,968,993
636434,970,994
636435,968,992
636436,967,992
636437,969,991
636438,970,995
636439,971,995
636440,969,995
636441,968,993
636442,967,993
636443,969,993
636444,973,994
636445,977,994
636446,977,995
636447,977,993
636448,975,993
636449,977,995
636450,981,999
636451,985,994
636452,986,999
636453,982,998
636454,984,997
636455,986,1001
636456,991,1003
636457,995,1004
636458,995,1003
636459,995,1001
636460,994,1000
636461,991,1002
636462,992,1007
636463,992,1007
636464,992,1008
636465,989,1007
636466,989,1009
636467,990,1011
636468,993,1014
636469,995,1015
636470,994,1013
636471,995,1010
636472,996,1006
636473,998,1006
636474,992,1005
636475,985,1006
636476,980,1005
636477,976,1003
636478,972,1002
636479,969,1002
636480,969,1002
636481,967,1004
636482,969,1000
636483,964,998
636484,962,997
636485,964,998
636486,964,1002
636487,966,1002
636488,963,1001
636489,962,999
636490,962,998
636491,962,998
636492,964,1002
636493,962,1003
636494,963,1000
636495,960,997
636496,958,996
636497,957,996
636498,958,998
636499,958,997
636500,957,995
636501,958,987
636502,953,983
636503,950,981
636504,941,975
636505,936,966
636506,931,960
636507,923,962
636508,912,968
636509,905,981
636510,908,999
636511,917,1022
636512,928,1044
636513,944,1061
636514,964,1078
636515,993,1102
636516,1029,1124
636517,1079,1148
636518,1141,1161
636519,1189,1144
636520,1217,1085
636521,1216,1015
636522,1174,978
636523,1094,979
636524,1005,989
636525,946,991
636526,925,992
636527,929,998
636528,943,1000
636529,953,998
636530,952,995
636531,948,991
636532,948,992
636533,948,994
636534,952,996
636535,952,994
636536,950,995
636537,948,994
636538,944,994
636539,946,992
636540,947,994
636541,954,993
636542,949,994
636543,951,993
636544,947,992
636545,950,994
636546,952,995
636547,952,996
636548,952,994
636549,950,993
636550,947,991
636551,946,994
636552,948,996
636553,950,995
636554,949,994
636555,949,993
636556,945,990
636557,946,994
636558,948,996
636559,950,996
636560,947,996
636561,946,994
636562,946,995
636563,947,995
636564,949,994
636565,950,995
636566,950,993
636567,947,993
636568,944,991
636569,944,993
636570,947,997
636571,948,995
636572,950,994
636573,949,992
636574,948,992
636575,949,992
636576,951,996
636577,953,996
636578,952,993
636579,949,988
636580,947,991
636581,947,988
636582,947,993
636583,950,993
636584,949,991
636585,948,990
636586,946,991
636587,949,991
636588,949,990
636589,951,991
636590,952,989
636591,949,986
636592,949,983
636593,947,985
636594,949,984
636595,949,983
636596,950,982
636597,946,979
636598,945,978
636599,945,980
636600,947,983
636601,949,977
636602,952,978
636603,951,975
636604,949,974
636605,946,976
636606,952,976
636607,952,977
636608,951,974
636609,951,972
636610,948,972
636611,948,975
636612,949,979
636613,949,979
636614,950,976
636615,948,976
636616,947,976
636617,946,985
636618,948,989
636619,953,988
636620,953,990
636621,956,987
636622,954,990
636623,958,992
636624,959,997
636625,962,1001
636626,964,1000
636627,963,999
636628,962,999
636629,965,1003
636630,969,1005
636631,972,1005
636632,972,1003
636633,970,1003
636634,967,1003
636635,967,1005
636636,969,1006
636637,971,1003
636638,969,1001
636639,967,1001
636640,967,1001
636641,967,1001
636642,968,1005
636643,970,1004
636644,969,1003
636645,968,1000
636646,967,997
636647,964,999
636648,967,1002
636649,966,1001
636650,965,1001
636651,965,1001
636652,965,1001
636653,967,1003
636654,968,1003
636655,968,999
636656,965,1000
636657,965,1000
636658,964,998
636659,964,998
636660,965,999
636661,969,998
636662,968,995
636663,967,994
636664,963,995
636665,962,997
636666,963,997
636667,966,998
636668,965,998
636669,961,996
636670,960,994
636671,961,994
636672,961,997
636673,963,992
636674,960,992
636675,960,990
636676,955,990
636677,954,991
636678,955,996
636679,958,993
636680,958,994
636681,957,989
636682,957,988
636683,960,988
636684,964,990
636685,963,991
636686,961,992
636687,959,988
636688,954,988
636689,954,992
636690,957,990
636691,956,990
636692,954,987
636693,953,987
636694,951,987
636695,951,987
636696,951,989
636697,953,990
636698,954,988
636699,953,984
636700,951,984
636701,952,987
636702,952,987
636703,955,988
636704,955,988
636705,954,983
636706,953,984
636707,957,982
636708,956,986
636709,957,986
636710,955,986
636711,953,986
636712,950,984
636713,951,985
636714,954,984
636715,952,985
636716,952,984
636717,952,982
636718,951,985
636719,952,984
636720,954,987
636721,953,987
636722,953,987
636723,952,984
636724,951,982
636725,952,987
636726,957,991
636727,958,989
636728,956,989
636729,955,984
636730,954,983
636731,954,984
636732,954,983
636733,956,983
636734,956,986
636735,955,984
636736,956,982
636737,956,984
636738,958,986
636739,961,984
636740,961,987
636741,964,982
636742,964,983
636743,963,986
636744,966,988
636745,967,987
636746,974,988
636747,974,988
636748,974,990
636749,976,993
636750,976,993
636751,976,989
636752,979,988
636753,976,986
636754,972,986
636755,970,988
636756,972,992
636757,978,991
636758,978,991
636759,978,990
636760,975,992
636761,973,994
636762,976,995
636763,977,998
636764,974,995
636765,979,989
636766,977,988
636767,976,989
636768,973,994
636769,969,990
636770,965,989
636771,961,985
636772,954,983
636773,953,984
636774,952,984
636775,948,982
636776,946,984
636777,944,982
636778,943,982
636779,943,985
636780,947,985
636781,948,984
636782,946,984
636783,944,982
636784,940,981
636785,943,982
636786,945,984
636787,946,984
636788,945,981
636789,945,979
636790,945,977
636791,945,980
636792,942,984
636793,945,981
636794,945,980
636795,944,970
636796,937,967
636797,934,966
636798,928,963
636799,923,958
636800,918,958
636801,913,970
636802,907,991
636803,907,1016
636804,920,1033
636805,946,1045
636806,976,1060
636807,1009,1081
636808,1057,1106
636809,1118,1128
636810,1170,1122
636811,1206,1074
636812,1212,1005
636813,1178,952
636814,1100,937
636815,1012,949
636816,948,963
636817,920,968
636818,915,971
636819,918,971
636820,923,970
636821,930,973
636822,932,979
636823,935,976
636824,936,976
636825,935,975
636826,933,974
636827,933,975
636828,934,976
636829,936,977
636830,936,977
636831,934,973
636832,934,974
636833,935,978
636834,937,978
636835,936,978
636836,938,977
636837,937,973
636838,934,974
636839,935,976
636840,936,977
636841,937,980
636842,935,980
636843,935,976
636844,933,972
636845,934,977
636846,935,978
636847,936,977
636848,937,976
636849,935,975
636850,932,974
636851,931,976
636852,933,977
636853,934,978
636854,934,976
636855,930,974
636856,931,977
636857,932,976
636858,933,979
636859,934,980
636860,933,978
636861,935,976
636862,932,973
636863,933,977
636864,934,980
636865,937,980
636866,937,979
636867,934,976
636868,930,974
636869,930,977
636870,931,978
636871,933,978
636872,935,978
636873,933,976
636874,931,975
636875,932,977
636876,935,978
636877,934,976
636878,935,974
636879,934,974
636880,932,974
636881,934,974
636882,935,977
636883,936,975
636884,933,973
636885,935,974
636886,936,968
636887,935,969
636888,938,970
636889,939,971
636890,935,969
636891,933,965
636892,929,962
636893,930,960
636894,931,962
636895,931,961
636896,930,959
636897,929,956
636898,926,957
636899,928,957
636900,928,956
636901,927,957
636902,929,957
636903,925,956
636904,925,957
636905,926,961
636906,929,964
636907,931,966
636908,936,968
636909,936,968
636910,935,970
636911,939,975
636912,943,980
636913,948,981
636914,949,983
636915,950,982
636916,950,983
636917,953,986
636918,956,988
636919,959,990
636920,959,994
636921,960,990
636922,959,991
636923,960,995
636924,962,999
636925,964,997
636926,963,994
636927,963,993
636928,960,992
636929,960,995
636930,963,997
636931,964,997
636932,964,997
636933,964,997
636934,962,995
636935,965,996
636936,964,998
636937,969,998
636938,968,998
636939,965,997
636940,964,997
636941,964,997
636942,967,998
636943,966,999
636944,966,996
636945,965,993
636946,963,994
636947,962,998
636948,964,1001
636949,966,1000
636950,964,996
636951,963,994
636952,961,993
636953,961,996
636954,963,997
636955,965,996
636956,965,998
636957,964,994
636958,962,994
636959,963,996
636960,965,996
636961,966,995
636962,966,994
636963,960,993
636964,961,992
636965,961,995
636966,963,994
636967,964,992
636968,964,990
636969,961,991
636970,958,989
636971,961,990
636972,963,993
636973,962,992
636974,960,993
636975,961,989
636976,959,989
636977,960,988
636978,959,991
636979,962,991
636980,963,991
636981,962,990
636982,959,991
636983,962,988
